PPG (1000 Hz)
2.4412
2.4420
2.4420
2.4436
2.4412
2.4396
2.4396
2.4396
2.4396
2.4404
2.4412
2.4396
2.4404
2.4388
2.4379
2.4388
2.4388
2.4396
2.4363
2.4379
2.4396
2.4355
2.4388
2.4388
2.4363
2.4355
2.4363
2.4396
2.4371
2.4363
2.4355
2.4371
2.4331
2.4315
2.4323
2.4331
2.4307
2.4299
2.4307
2.4291
2.4291
2.4299
2.4299
2.4275
2.4275
2.4283
2.4275
2.4275
2.4251
2.4259
2.4234
2.4259
2.4251
2.4242
2.4267
2.4234
2.4210
2.4242
2.4226
2.4218
2.4218
2.4226
2.4218
2.4226
2.4218
2.4194
2.4210
2.4186
2.4186
2.4186
2.4170
2.4170
2.4178
2.4170
2.4138
2.4154
2.4146
2.4138
2.4154
2.4122
2.4130
2.4122
2.4106
2.4097
2.4106
2.4097
2.4081
2.4114
2.4089
2.4081
2.4081
2.4089
2.4097
2.4081
2.4081
2.4057
2.4073
2.4057
2.4057
2.4041
2.4041
2.4033
2.4041
2.4033
2.4041
2.4009
2.4033
2.4025
2.4009
2.3993
2.4017
2.3993
2.4001
2.3993
2.4001
2.4001
2.4001
2.3993
2.3977
2.3993
2.3960
2.3952
2.3952
2.3944
2.3936
2.3928
2.3936
2.3936
2.3920
2.3912
2.3904
2.3888
2.3896
2.3880
2.3888
2.3880
2.3880
2.3872
2.3856
2.3888
2.3848
2.3856
2.3856
2.3840
2.3848
2.3872
2.3856
2.3848
2.3856
2.3824
2.3832
2.3856
2.3832
2.3807
2.3799
2.3799
2.3775
2.3807
2.3775
2.3759
2.3767
2.3783
2.3775
2.3767
2.3767
2.3759
2.3767
2.3751
2.3735
2.3735
2.3751
2.3727
2.3735
2.3719
2.3719
2.3727
2.3727
2.3711
2.3711
2.3703
2.3687
2.3695
2.3679
2.3687
2.3670
2.3670
2.3670
2.3662
2.3654
2.3662
2.3646
2.3646
2.3662
2.3638
2.3638
2.3622
2.3630
2.3606
2.3622
2.3614
2.3614
2.3598
2.3590
2.3582
2.3590
2.3566
2.3574
2.3558
2.3566
2.3566
2.3558
2.3550
2.3550
2.3558
2.3533
2.3558
2.3533
2.3542
2.3558
2.3525
2.3550
2.3542
2.3558
2.3566
2.3558
2.3558
2.3566
2.3550
2.3566
2.3582
2.3582
2.3582
2.3598
2.3622
2.3630
2.3662
2.3662
2.3703
2.3687
2.3743
2.3759
2.3775
2.3799
2.3799
2.3840
2.3864
2.3904
2.3928
2.3960
2.3969
2.4001
2.4049
2.4089
2.4130
2.4146
2.4202
2.4234
2.4251
2.4323
2.4396
2.4420
2.4452
2.4508
2.4573
2.4613
2.4637
2.4686
2.4718
2.4774
2.4806
2.4847
2.4887
2.4903
2.4951
2.4968
2.5016
2.5072
2.5080
2.5113
2.5161
2.5153
2.5169
2.5233
2.5290
2.5330
2.5354
2.5387
2.5403
2.5427
2.5475
2.5475
2.5515
2.5515
2.5540
2.5548
2.5572
2.5596
2.5628
2.5652
2.5644
2.5685
2.5693
2.5717
2.5717
2.5741
2.5741
2.5757
2.5765
2.5773
2.5797
2.5797
2.5822
2.5822
2.5822
2.5862
2.5830
2.5838
2.5870
2.5854
2.5862
2.5870
2.5870
2.5894
2.5870
2.5870
2.5902
2.5878
2.5902
2.5902
2.5886
2.5894
2.5910
2.5918
2.5894
2.5918
2.5910
2.5918
2.5918
2.5934
2.5918
2.5910
2.5934
2.5918
2.5950
2.5926
2.5942
2.5934
2.5910
2.5910
2.5918
2.5926
2.5910
2.5926
2.5934
2.5918
2.5910
2.5926
2.5910
2.5910
2.5902
2.5910
2.5918
2.5886
2.5910
2.5910
2.5902
2.5910
2.5910
2.5894
2.5894
2.5886
2.5886
2.5886
2.5870
2.5886
2.5878
2.5894
2.5862
2.5886
2.5878
2.5886
2.5870
2.5870
2.5862
2.5862
2.5854
2.5870
2.5870
2.5846
2.5846
2.5846
2.5854
2.5846
2.5838
2.5830
2.5838
2.5838
2.5822
2.5830
2.5814
2.5830
2.5814
2.5830
2.5822
2.5838
2.5822
2.5822
2.5830
2.5814
2.5805
2.5830
2.5814
2.5830
2.5838
2.5830
2.5838
2.5830
2.5846
2.5814
2.5814
2.5805
2.5830
2.5805
2.5805
2.5797
2.5797
2.5789
2.5781
2.5797
2.5805
2.5781
2.5781
2.5789
2.5773
2.5765
2.5805
2.5789
2.5814
2.5781
2.5781
2.5757
2.5781
2.5789
2.5773
2.5781
2.5781
2.5773
2.5765
2.5781
2.5789
2.5781
2.5789
2.5789
2.5789
2.5805
2.5781
2.5805
2.5805
2.5789
2.5814
2.5830
2.5781
2.5814
2.5814
2.5797
2.5781
2.5789
2.5789
2.5797
2.5797
2.5781
2.5773
2.5773
2.5789
2.5781
2.5757
2.5781
2.5765
2.5773
2.5765
2.5765
2.5741
2.5765
2.5765
2.5773
2.5773
2.5765
2.5749
2.5757
2.5773
2.5725
2.5741
2.5733
2.5741
2.5749
2.5733
2.5733
2.5717
2.5725
2.5709
2.5725
2.5709
2.5717
2.5717
2.5709
2.5717
2.5701
2.5709
2.5701
2.5693
2.5693
2.5701
2.5685
2.5685
2.5685
2.5677
2.5660
2.5677
2.5669
2.5660
2.5652
2.5660
2.5669
2.5669
2.5677
2.5669
2.5644
2.5652
2.5660
2.5644
2.5636
2.5636
2.5628
2.5628
2.5620
2.5612
2.5612
2.5612
2.5604
2.5604
2.5596
2.5588
2.5604
2.5580
2.5580
2.5588
2.5596
2.5596
2.5580
2.5572
2.5580
2.5564
2.5572
2.5564
2.5556
2.5540
2.5588
2.5540
2.5564
2.5540
2.5540
2.5540
2.5540
2.5532
2.5523
2.5523
2.5548
2.5523
2.5564
2.5540
2.5540
2.5532
2.5507
2.5548
2.5532
2.5548
2.5523
2.5540
2.5532
2.5515
2.5515
2.5515
2.5548
2.5515
2.5515
2.5532
2.5515
2.5540
2.5523
2.5532
2.5540
2.5523
2.5540
2.5556
2.5556
2.5556
2.5564
2.5564
2.5515
2.5540
2.5540
2.5532
2.5507
2.5532
2.5515
2.5515
2.5515
2.5515
2.5523
2.5523
2.5523
2.5540
2.5507
2.5515
2.5523
2.5515
2.5515
2.5515
2.5540
2.5507
2.5515
2.5507
2.5507
2.5507
2.5532
2.5515
2.5507
2.5507
2.5507
2.5499
2.5499
2.5515
2.5483
2.5483
2.5507
2.5475
2.5483
2.5467
2.5475
2.5499
2.5483
2.5467
2.5459
2.5475
2.5475
2.5475
2.5475
2.5435
2.5435
2.5475
2.5459
2.5443
2.5443
2.5427
2.5419
2.5427
2.5443
2.5419
2.5427
2.5419
2.5411
2.5403
2.5419
2.5395
2.5387
2.5411
2.5403
2.5395
2.5378
2.5378
2.5370
2.5378
2.5370
2.5387
2.5387
2.5370
2.5354
2.5362
2.5370
2.5362
2.5330
2.5362
2.5322
2.5346
2.5314
2.5330
2.5322
2.5338
2.5322
2.5314
2.5298
2.5306
2.5298
2.5290
2.5306
2.5290
2.5298
2.5298
2.5282
2.5274
2.5298
2.5266
2.5282
2.5258
2.5242
2.5266
2.5250
2.5266
2.5250
2.5242
2.5233
2.5242
2.5193
2.5233
2.5209
2.5217
2.5201
2.5193
2.5185
2.5201
2.5193
2.5201
2.5169
2.5193
2.5177
2.5193
2.5193
2.5161
2.5169
2.5153
2.5161
2.5153
2.5137
2.5121
2.5121
2.5129
2.5113
2.5121
2.5105
2.5088
2.5096
2.5105
2.5088
2.5080
2.5080
2.5072
2.5064
2.5056
2.5072
2.5056
2.5048
2.5040
2.5040
2.5048
2.5024
2.5016
2.5016
2.5000
2.5056
2.5008
2.5000
2.5024
2.4984
2.4992
2.4992
2.4992
2.4976
2.4976
2.4968
2.4968
2.4960
2.4968
2.4976
2.4943
2.4943
2.4960
2.4943
2.4935
2.4935
2.4927
2.4935
2.4943
2.4927
2.4911
2.4911
2.4887
2.4887
2.4895
2.4911
2.4879
2.4903
2.4887
2.4879
2.4871
2.4863
2.4847
2.4839
2.4847
2.4855
2.4823
2.4839
2.4847
2.4823
2.4839
2.4815
2.4831
2.4831
2.4806
2.4806
2.4815
2.4806
2.4798
2.4798
2.4798
2.4790
2.4798
2.4806
2.4766
2.4774
2.4782
2.4774
2.4750
2.4758
2.4742
2.4734
2.4750
2.4726
2.4742
2.4734
2.4726
2.4718
2.4702
2.4726
2.4686
2.4710
2.4694
2.4702
2.4678
2.4678
2.4686
2.4686
2.4694
2.4678
2.4661
2.4669
2.4669
2.4669
2.4645
2.4653
2.4637
2.4645
2.4637
2.4637
2.4645
2.4645
2.4621
2.4621
2.4613
2.4597
2.4613
2.4597
2.4613
2.4581
2.4613
2.4581
2.4597
2.4581
2.4573
2.4581
2.4565
2.4565
2.4565
2.4549
2.4573
2.4533
2.4541
2.4557
2.4541
2.4541
2.4549
2.4549
2.4533
2.4557
2.4524
2.4533
2.4516
2.4508
2.4492
2.4516
2.4492
2.4492
2.4500
2.4500
2.4508
2.4500
2.4500
2.4476
2.4484
2.4484
2.4468
2.4452
2.4476
2.4476
2.4460
2.4460
2.4468
2.4444
2.4436
2.4444
2.4460
2.4444
2.4436
2.4404
2.4436
2.4428
2.4412
2.4420
2.4412
2.4396
2.4420
2.4379
2.4379
2.4371
2.4396
2.4388
2.4371
2.4371
2.4355
2.4363
2.4355
2.4363
2.4347
2.4339
2.4323
2.4331
2.4323
2.4323
2.4323
2.4315
2.4331
2.4315
2.4283
2.4299
2.4307
2.4299
2.4299
2.4275
2.4275
2.4275
2.4259
2.4283
2.4275
2.4267
2.4251
2.4259
2.4259
2.4234
2.4226
2.4242
2.4226
2.4242
2.4242
2.4234
2.4218
2.4218
2.4218
2.4226
2.4202
2.4210
2.4194
2.4210
2.4210
2.4194
2.4202
2.4178
2.4178
2.4178
2.4170
2.4178
2.4162
2.4162
2.4154
2.4130
2.4170
2.4122
2.4130
2.4122
2.4138
2.4122
2.4130
2.4130
2.4114
2.4106
2.4106
2.4114
2.4097
2.4106
2.4089
2.4097
2.4089
2.4097
2.4081
2.4073
2.4065
2.4065
2.4057
2.4065
2.4073
2.4041
2.4025
2.4049
2.4033
2.4049
2.4033
2.4017
2.4033
2.4017
2.4009
2.4017
2.4001
2.3985
2.4001
2.3993
2.3969
2.3977
2.3985
2.3985
2.3969
2.3969
2.3960
2.3952
2.3944
2.3944
2.3944
2.3944
2.3928
2.3920
2.3928
2.3928
2.3912
2.3896
2.3904
2.3880
2.3896
2.3896
2.3904
2.3880
2.3872
2.3880
2.3872
2.3856
2.3864
2.3856
2.3848
2.3856
2.3840
2.3832
2.3832
2.3815
2.3832
2.3832
2.3815
2.3815
2.3824
2.3799
2.3775
2.3799
2.3775
2.3767
2.3783
2.3783
2.3775
2.3759
2.3751
2.3767
2.3735
2.3743
2.3743
2.3735
2.3743
2.3703
2.3703
2.3703
2.3687
2.3703
2.3670
2.3703
2.3687
2.3679
2.3687
2.3670
2.3662
2.3670
2.3654
2.3638
2.3662
2.3646
2.3646
2.3622
2.3622
2.3614
2.3614
2.3622
2.3582
2.3598
2.3606
2.3614
2.3590
2.3590
2.3582
2.3582
2.3574
2.3574
2.3558
2.3598
2.3566
2.3574
2.3566
2.3582
2.3558
2.3558
2.3558
2.3566
2.3566
2.3590
2.3558
2.3598
2.3590
2.3598
2.3614
2.3630
2.3614
2.3638
2.3646
2.3654
2.3670
2.3679
2.3719
2.3735
2.3767
2.3783
2.3807
2.3824
2.3856
2.3888
2.3904
2.3944
2.3969
2.4001
2.4057
2.4089
2.4106
2.4146
2.4194
2.4234
2.4259
2.4299
2.4355
2.4420
2.4444
2.4484
2.4541
2.4565
2.4597
2.4637
2.4694
2.4742
2.4766
2.4806
2.4855
2.4903
2.4935
2.5000
2.5008
2.5064
2.5096
2.5121
2.5169
2.5153
2.5161
2.5233
2.5298
2.5322
2.5362
2.5419
2.5419
2.5459
2.5499
2.5507
2.5548
2.5523
2.5572
2.5596
2.5628
2.5620
2.5636
2.5677
2.5677
2.5709
2.5725
2.5741
2.5757
2.5757
2.5765
2.5781
2.5789
2.5805
2.5814
2.5838
2.5854
2.5862
2.5846
2.5878
2.5894
2.5902
2.5894
2.5886
2.5926
2.5918
2.5934
2.5926
2.5918
2.5942
2.5934
2.5950
2.5942
2.5942
2.5942
2.5959
2.5950
2.5967
2.5967
2.5967
2.5967
2.5967
2.5991
2.5983
2.5967
2.5991
2.5991
2.5991
2.5967
2.5967
2.5967
2.5991
2.5991
2.5983
2.5983
2.5975
2.5983
2.5975
2.5967
2.5959
2.5959
2.5975
2.5975
2.5991
2.5950
2.5959
2.5967
2.5959
2.5959
2.5975
2.5967
2.5950
2.5942
2.5934
2.5942
2.5926
2.5942
2.5934
2.5910
2.5934
2.5959
2.5942
2.5934
2.5910
2.5942
2.5926
2.5902
2.5910
2.5918
2.5910
2.5886
2.5910
2.5902
2.5910
2.5902
2.5910
2.5910
2.5902
2.5886
2.5894
2.5910
2.5886
2.5878
2.5878
2.5886
2.5878
2.5878
2.5878
2.5862
2.5870
2.5870
2.5870
2.5854
2.5878
2.5854
2.5870
2.5862
2.5854
2.5838
2.5838
2.5846
2.5870
2.5870
2.5838
2.5846
2.5830
2.5854
2.5838
2.5854
2.5854
2.5846
2.5838
2.5854
2.5838
2.5830
2.5838
2.5822
2.5838
2.5822
2.5830
2.5822
2.5822
2.5838
2.5830
2.5814
2.5814
2.5814
2.5838
2.5830
2.5838
2.5822
2.5830
2.5830
2.5830
2.5822
2.5822
2.5805
2.5814
2.5814
2.5830
2.5830
2.5797
2.5838
2.5830
2.5846
2.5830
2.5846
2.5822
2.5830
2.5814
2.5822
2.5838
2.5822
2.5822
2.5830
2.5814
2.5822
2.5814
2.5797
2.5814
2.5822
2.5822
2.5814
2.5797
2.5805
2.5822
2.5814
2.5814
2.5797
2.5781
2.5797
2.5789
2.5814
2.5789
2.5797
2.5797
2.5789
2.5757
2.5789
2.5773
2.5765
2.5765
2.5765
2.5749
2.5773
2.5757
2.5741
2.5757
2.5733
2.5741
2.5741
2.5741
2.5733
2.5733
2.5733
2.5725
2.5717
2.5725
2.5709
2.5709
2.5709
2.5709
2.5685
2.5709
2.5693
2.5693
2.5685
2.5677
2.5701
2.5693
2.5677
2.5669
2.5652
2.5669
2.5660
2.5652
2.5669
2.5669
2.5660
2.5652
2.5644
2.5652
2.5628
2.5636
2.5628
2.5644
2.5620
2.5620
2.5636
2.5628
2.5620
2.5628
2.5612
2.5620
2.5612
2.5580
2.5596
2.5596
2.5604
2.5604
2.5588
2.5588
2.5588
2.5588
2.5572
2.5596
2.5580
2.5596
2.5588
2.5580
2.5588
2.5588
2.5596
2.5556
2.5564
2.5580
2.5580
2.5572
2.5572
2.5580
2.5588
2.5556
2.5564
2.5580
2.5572
2.5564
2.5556
2.5564
2.5572
2.5572
2.5556
2.5572
2.5580
2.5564
2.5556
2.5556
2.5556
2.5572
2.5580
2.5540
2.5556
2.5556
2.5556
2.5564
2.5548
2.5556
2.5564
2.5564
2.5564
2.5548
2.5548
2.5548
2.5540
2.5548
2.5548
2.5548
2.5540
2.5532
2.5523
2.5523
2.5523
2.5523
2.5556
2.5523
2.5548
2.5540
2.5540
2.5548
2.5532
2.5523
2.5515
2.5532
2.5523
2.5515
2.5507
2.5548
2.5507
2.5523
2.5523
2.5523
2.5523
2.5507
2.5523
2.5507
2.5515
2.5499
2.5507
2.5507
2.5491
2.5499
2.5499
2.5491
2.5499
2.5491
2.5499
2.5491
2.5491
2.5483
2.5467
2.5475
2.5483
2.5451
2.5475
2.5467
2.5459
2.5475
2.5435
2.5475
2.5443
2.5451
2.5451
2.5451
2.5435
2.5435
2.5427
2.5451
2.5443
2.5443
2.5427
2.5427
2.5419
2.5403
2.5403
2.5411
2.5403
2.5387
2.5395
2.5387
2.5387
2.5362
2.5370
2.5387
2.5354
2.5362
2.5370
2.5354
2.5362
2.5346
2.5354
2.5330
2.5338
2.5330
2.5330
2.5338
2.5322
2.5306
2.5314
2.5298
2.5322
2.5290
2.5290
2.5282
2.5282
2.5282
2.5290
2.5282
2.5266
2.5266
2.5274
2.5250
2.5266
2.5250
2.5242
2.5233
2.5233
2.5242
2.5233
2.5225
2.5217
2.5233
2.5201
2.5233
2.5209
2.5185
2.5185
2.5193
2.5177
2.5185
2.5169
2.5169
2.5177
2.5185
2.5177
2.5169
2.5153
2.5161
2.5121
2.5161
2.5145
2.5121
2.5121
2.5105
2.5096
2.5129
2.5088
2.5121
2.5080
2.5096
2.5088
2.5088
2.5064
2.5048
2.5080
2.5040
2.5064
2.5048
2.5040
2.5048
2.5032
2.5040
2.5032
2.5008
2.5016
2.5016
2.5008
2.4992
2.5008
2.4992
2.4992
2.4992
2.4976
2.4968
2.4984
2.4935
2.4968
2.4968
2.4968
2.4968
2.4960
2.4943
2.4935
2.4935
2.4919
2.4935
2.4960
2.4911
2.4919
2.4927
2.4903
2.4903
2.4911
2.4903
2.4895
2.4895
2.4903
2.4895
2.4879
2.4887
2.4871
2.4863
2.4871
2.4847
2.4831
2.4855
2.4863
2.4863
2.4847
2.4831
2.4831
2.4847
2.4806
2.4823
2.4823
2.4815
2.4831
2.4823
2.4798
2.4806
2.4774
2.4798
2.4798
2.4790
2.4782
2.4774
2.4750
2.4758
2.4750
2.4758
2.4742
2.4758
2.4734
2.4742
2.4742
2.4750
2.4726
2.4734
2.4726
2.4726
2.4710
2.4718
2.4694
2.4710
2.4678
2.4702
2.4702
2.4678
2.4702
2.4686
2.4669
2.4669
2.4661
2.4653
2.4661
2.4645
2.4661
2.4629
2.4661
2.4645
2.4637
2.4621
2.4613
2.4629
2.4621
2.4613
2.4621
2.4621
2.4597
2.4621
2.4605
2.4597
2.4597
2.4589
2.4581
2.4589
2.4581
2.4589
2.4573
2.4581
2.4557
2.4573
2.4573
2.4557
2.4573
2.4565
2.4541
2.4549
2.4557
2.4533
2.4533
2.4533
2.4500
2.4500
2.4533
2.4508
2.4500
2.4508
2.4500
2.4500
2.4500
2.4500
2.4484
2.4500
2.4484
2.4476
2.4492
2.4484
2.4468
2.4452
2.4444
2.4444
2.4452
2.4476
2.4460
2.4460
2.4420
2.4444
2.4428
2.4436
2.4436
2.4436
2.4420
2.4412
2.4428
2.4404
2.4412
2.4412
2.4404
2.4412
2.4404
2.4371
2.4396
2.4363
2.4388
2.4388
2.4388
2.4339
2.4339
2.4355
2.4347
2.4323
2.4363
2.4315
2.4347
2.4347
2.4323
2.4323
2.4307
2.4315
2.4315
2.4331
2.4307
2.4267
2.4283
2.4275
2.4283
2.4307
2.4299
2.4259
2.4283
2.4259
2.4267
2.4259
2.4267
2.4251
2.4267
2.4234
2.4226
2.4242
2.4218
2.4226
2.4226
2.4210
2.4210
2.4218
2.4194
2.4218
2.4210
2.4186
2.4202
2.4186
2.4202
2.4194
2.4154
2.4186
2.4178
2.4178
2.4162
2.4146
2.4146
2.4146
2.4162
2.4146
2.4146
2.4130
2.4122
2.4122
2.4122
2.4122
2.4114
2.4130
2.4106
2.4114
2.4106
2.4106
2.4097
2.4073
2.4073
2.4081
2.4073
2.4073
2.4049
2.4081
2.4049
2.4049
2.4057
2.4041
2.4049
2.4025
2.4025
2.4025
2.4017
2.3993
2.4001
2.4033
2.4009
2.4001
2.4001
2.3985
2.3985
2.3969
2.3985
2.3977
2.3985
2.3969
2.3960
2.3960
2.3960
2.3944
2.3944
2.3936
2.3944
2.3928
2.3920
2.3928
2.3912
2.3928
2.3904
2.3896
2.3888
2.3880
2.3880
2.3904
2.3880
2.3880
2.3872
2.3872
2.3872
2.3856
2.3856
2.3856
2.3840
2.3832
2.3840
2.3824
2.3832
2.3824
2.3815
2.3815
2.3807
2.3807
2.3807
2.3799
2.3783
2.3791
2.3791
2.3775
2.3767
2.3759
2.3759
2.3767
2.3751
2.3775
2.3743
2.3759
2.3719
2.3751
2.3727
2.3751
2.3711
2.3727
2.3735
2.3711
2.3703
2.3695
2.3703
2.3687
2.3687
2.3687
2.3703
2.3670
2.3662
2.3662
2.3679
2.3662
2.3670
2.3654
2.3654
2.3638
2.3630
2.3630
2.3646
2.3622
2.3630
2.3630
2.3630
2.3606
2.3606
2.3606
2.3598
2.3606
2.3590
2.3590
2.3590
2.3574
2.3582
2.3566
2.3566
2.3558
2.3550
2.3542
2.3574
2.3533
2.3525
2.3542
2.3533
2.3525
2.3509
2.3517
2.3517
2.3517
2.3509
2.3509
2.3509
2.3501
2.3517
2.3501
2.3493
2.3501
2.3493
2.3493
2.3485
2.3493
2.3525
2.3517
2.3509
2.3517
2.3533
2.3533
2.3558
2.3525
2.3566
2.3566
2.3574
2.3606
2.3638
2.3654
2.3670
2.3679
2.3703
2.3751
2.3775
2.3815
2.3824
2.3848
2.3896
2.3928
2.3960
2.4033
2.4057
2.4089
2.4122
2.4170
2.4210
2.4267
2.4315
2.4347
2.4404
2.4468
2.4500
2.4524
2.4589
2.4645
2.4694
2.4734
2.4782
2.4823
2.4871
2.4903
2.4943
2.4968
2.5024
2.5088
2.5105
2.5129
2.5153
2.5185
2.5258
2.5306
2.5346
2.5378
2.5419
2.5443
2.5491
2.5499
2.5548
2.5596
2.5604
2.5628
2.5660
2.5660
2.5693
2.5725
2.5741
2.5773
2.5765
2.5789
2.5822
2.5846
2.5838
2.5846
2.5878
2.5886
2.5878
2.5902
2.5910
2.5926
2.5950
2.5942
2.5967
2.5991
2.5999
2.5991
2.5999
2.6047
2.6023
2.6039
2.6015
2.6031
2.6055
2.6063
2.6063
2.6071
2.6087
2.6087
2.6079
2.6087
2.6071
2.6104
2.6096
2.6096
2.6096
2.6087
2.6104
2.6096
2.6096
2.6104
2.6120
2.6104
2.6112
2.6128
2.6128
2.6128
2.6104
2.6120
2.6104
2.6144
2.6112
2.6120
2.6128
2.6112
2.6104
2.6112
2.6104
2.6112
2.6112
2.6096
2.6112
2.6112
2.6096
2.6087
2.6120
2.6096
2.6104
2.6096
2.6096
2.6071
2.6104
2.6096
2.6096
2.6079
2.6071
2.6071
2.6079
2.6079
2.6055
2.6071
2.6071
2.6055
2.6063
2.6079
2.6079
2.6063
2.6031
2.6055
2.6047
2.6039
2.6047
2.6047
2.6039
2.6023
2.6055
2.6031
2.6047
2.6023
2.6031
2.6039
2.6047
2.6031
2.6023
2.6015
2.6007
2.6023
2.6015
2.6015
2.6031
2.6015
2.5999
2.6007
2.5999
2.6007
2.5999
2.5999
2.6015
2.6007
2.5999
2.5999
2.5983
2.6031
2.5999
2.5967
2.5991
2.5999
2.5983
2.5999
2.5999
2.5999
2.5999
2.5991
2.5983
2.5983
2.5999
2.6015
2.6015
2.6015
2.6015
2.5975
2.5991
2.5991
2.5991
2.5999
2.5999
2.5975
2.5991
2.5991
2.5999
2.5999
2.6015
2.5999
2.5991
2.5999
2.5991
2.5991
2.6007
2.6023
2.6007
2.6007
2.6015
2.6015
2.5999
2.6023
2.6023
2.6007
2.6007
2.5999
2.6007
2.6007
2.6007
2.5999
2.6007
2.6007
2.6007
2.5991
2.5999
2.5999
2.6007
2.5999
2.6023
2.6015
2.5991
2.6007
2.6007
2.6007
2.5983
2.5999
2.5983
2.5975
2.5983
2.5983
2.5975
2.5975
2.5975
2.5967
2.5975
2.5967
2.5975
2.5950
2.5959
2.5942
2.5950
2.5950
2.5934
2.5942
2.5934
2.5926
2.5942
2.5926
2.5926
2.5934
2.5926
2.5926
2.5902
2.5910
2.5902
2.5910
2.5918
2.5910
2.5902
2.5902
2.5886
2.5894
2.5894
2.5894
2.5878
2.5886
2.5870
2.5878
2.5862
2.5862
2.5862
2.5846
2.5870
2.5862
2.5846
2.5830
2.5830
2.5814
2.5830
2.5830
2.5805
2.5838
2.5830
2.5797
2.5814
2.5814
2.5805
2.5814
2.5805
2.5805
2.5805
2.5814
2.5797
2.5805
2.5805
2.5797
2.5781
2.5773
2.5773
2.5773
2.5789
2.5797
2.5757
2.5789
2.5781
2.5749
2.5789
2.5749
2.5757
2.5757
2.5757
2.5781
2.5765
2.5765
2.5741
2.5757
2.5749
2.5765
2.5765
2.5749
2.5757
2.5749
2.5741
2.5749
2.5757
2.5749
2.5749
2.5717
2.5733
2.5725
2.5749
2.5749
2.5749
2.5725
2.5749
2.5749
2.5733
2.5765
2.5733
2.5757
2.5749
2.5749
2.5757
2.5781
2.5765
2.5757
2.5773
2.5773
2.5781
2.5773
2.5781
2.5765
2.5765
2.5789
2.5765
2.5773
2.5757
2.5757
2.5749
2.5749
2.5741
2.5749
2.5717
2.5749
2.5741
2.5765
2.5741
2.5733
2.5757
2.5733
2.5717
2.5717
2.5725
2.5717
2.5733
2.5717
2.5709
2.5717
2.5717
2.5717
2.5717
2.5709
2.5677
2.5701
2.5717
2.5709
2.5693
2.5693
2.5693
2.5693
2.5701
2.5693
2.5709
2.5717
2.5701
2.5685
2.5709
2.5701
2.5693
2.5709
2.5701
2.5701
2.5685
2.5660
2.5660
2.5669
2.5636
2.5652
2.5652
2.5636
2.5644
2.5628
2.5644
2.5628
2.5644
2.5636
2.5620
2.5636
2.5620
2.5628
2.5636
2.5636
2.5628
2.5596
2.5596
2.5604
2.5620
2.5588
2.5596
2.5588
2.5572
2.5572
2.5540
2.5556
2.5556
2.5548
2.5548
2.5548
2.5556
2.5499
2.5540
2.5532
2.5540
2.5515
2.5499
2.5491
2.5523
2.5499
2.5499
2.5475
2.5491
2.5483
2.5483
2.5467
2.5467
2.5443
2.5467
2.5451
2.5443
2.5443
2.5443
2.5451
2.5435
2.5435
2.5427
2.5427
2.5403
2.5395
2.5435
2.5395
2.5411
2.5411
2.5419
2.5403
2.5411
2.5419
2.5411
2.5419
2.5395
2.5395
2.5378
2.5395
2.5378
2.5370
2.5395
2.5378
2.5354
2.5346
2.5322
2.5338
2.5314
2.5330
2.5338
2.5330
2.5322
2.5314
2.5314
2.5314
2.5290
2.5306
2.5274
2.5290
2.5298
2.5290
2.5258
2.5266
2.5282
2.5266
2.5250
2.5217
2.5242
2.5217
2.5250
2.5225
2.5217
2.5217
2.5201
2.5201
2.5193
2.5225
2.5193
2.5193
2.5193
2.5193
2.5169
2.5185
2.5193
2.5169
2.5153
2.5161
2.5161
2.5161
2.5153
2.5169
2.5137
2.5137
2.5137
2.5129
2.5129
2.5137
2.5105
2.5105
2.5113
2.5096
2.5080
2.5088
2.5088
2.5080
2.5056
2.5064
2.5040
2.5032
2.5056
2.5032
2.5048
2.5048
2.5048
2.5008
2.5048
2.5040
2.5024
2.5040
2.5000
2.5000
2.5008
2.5000
2.4992
2.5000
2.4976
2.4984
2.4984
2.4984
2.4968
2.4951
2.4984
2.4968
2.4984
2.4943
2.4943
2.4919
2.4968
2.4943
2.4943
2.4919
2.4935
2.4903
2.4911
2.4919
2.4911
2.4919
2.4903
2.4895
2.4903
2.4879
2.4895
2.4887
2.4879
2.4887
2.4855
2.4879
2.4871
2.4863
2.4855
2.4863
2.4863
2.4863
2.4823
2.4847
2.4839
2.4831
2.4839
2.4839
2.4839
2.4823
2.4831
2.4839
2.4815
2.4806
2.4815
2.4831
2.4815
2.4798
2.4798
2.4790
2.4790
2.4790
2.4790
2.4798
2.4766
2.4774
2.4750
2.4774
2.4758
2.4766
2.4782
2.4750
2.4750
2.4750
2.4750
2.4750
2.4718
2.4718
2.4734
2.4710
2.4710
2.4710
2.4710
2.4758
2.4734
2.4710
2.4710
2.4702
2.4710
2.4702
2.4694
2.4694
2.4661
2.4678
2.4694
2.4686
2.4669
2.4678
2.4661
2.4653
2.4686
2.4653
2.4653
2.4661
2.4669
2.4645
2.4645
2.4629
2.4637
2.4621
2.4613
2.4597
2.4613
2.4605
2.4605
2.4597
2.4597
2.4597
2.4597
2.4581
2.4581
2.4573
2.4581
2.4589
2.4581
2.4565
2.4573
2.4557
2.4565
2.4549
2.4541
2.4541
2.4533
2.4524
2.4524
2.4533
2.4516
2.4524
2.4508
2.4516
2.4516
2.4492
2.4524
2.4508
2.4476
2.4500
2.4500
2.4484
2.4476
2.4500
2.4500
2.4468
2.4476
2.4468
2.4468
2.4468
2.4476
2.4444
2.4444
2.4444
2.4428
2.4436
2.4428
2.4436
2.4444
2.4444
2.4412
2.4420
2.4388
2.4412
2.4420
2.4404
2.4404
2.4404
2.4396
2.4371
2.4396
2.4371
2.4363
2.4355
2.4355
2.4347
2.4347
2.4355
2.4307
2.4323
2.4315
2.4323
2.4315
2.4291
2.4315
2.4291
2.4299
2.4291
2.4299
2.4283
2.4283
2.4275
2.4283
2.4259
2.4267
2.4275
2.4242
2.4234
2.4259
2.4234
2.4234
2.4226
2.4226
2.4210
2.4210
2.4218
2.4218
2.4218
2.4202
2.4194
2.4202
2.4178
2.4178
2.4170
2.4178
2.4170
2.4154
2.4162
2.4154
2.4170
2.4146
2.4138
2.4138
2.4122
2.4130
2.4146
2.4114
2.4097
2.4089
2.4106
2.4106
2.4106
2.4089
2.4081
2.4097
2.4073
2.4089
2.4065
2.4057
2.4057
2.4057
2.4065
2.4057
2.4041
2.4033
2.4025
2.4041
2.4049
2.4049
2.4033
2.4009
2.4017
2.4041
2.4001
2.4009
2.3993
2.3985
2.3993
2.3985
2.3993
2.3977
2.3977
2.3952
2.3969
2.3960
2.3977
2.3969
2.3952
2.3952
2.3944
2.3928
2.3944
2.3936
2.3920
2.3912
2.3936
2.3920
2.3896
2.3904
2.3920
2.3888
2.3896
2.3888
2.3896
2.3880
2.3856
2.3872
2.3872
2.3864
2.3840
2.3840
2.3856
2.3824
2.3832
2.3824
2.3832
2.3815
2.3807
2.3799
2.3799
2.3807
2.3807
2.3783
2.3807
2.3791
2.3775
2.3775
2.3767
2.3775
2.3751
2.3759
2.3767
2.3743
2.3719
2.3703
2.3711
2.3711
2.3719
2.3719
2.3703
2.3711
2.3695
2.3687
2.3695
2.3695
2.3687
2.3679
2.3670
2.3670
2.3695
2.3662
2.3662
2.3670
2.3662
2.3638
2.3670
2.3646
2.3654
2.3646
2.3638
2.3638
2.3662
2.3662
2.3662
2.3654
2.3662
2.3670
2.3670
2.3687
2.3687
2.3727
2.3735
2.3727
2.3743
2.3767
2.3791
2.3815
2.3832
2.3840
2.3872
2.3920
2.3936
2.3944
2.3977
2.4001
2.4057
2.4081
2.4106
2.4146
2.4202
2.4242
2.4251
2.4291
2.4339
2.4379
2.4452
2.4476
2.4516
2.4589
2.4597
2.4645
2.4702
2.4742
2.4806
2.4823
2.4863
2.4887
2.4935
2.4976
2.5024
2.5048
2.5105
2.5137
2.5169
2.5185
2.5225
2.5290
2.5346
2.5387
2.5411
2.5443
2.5491
2.5507
2.5532
2.5556
2.5604
2.5620
2.5644
2.5677
2.5677
2.5709
2.5741
2.5741
2.5789
2.5773
2.5805
2.5830
2.5830
2.5862
2.5878
2.5878
2.5886
2.5918
2.5942
2.5934
2.5950
2.5950
2.5983
2.5991
2.5991
2.5991
2.5999
2.6015
2.6039
2.6047
2.6039
2.6055
2.6063
2.6055
2.6079
2.6071
2.6063
2.6087
2.6087
2.6087
2.6104
2.6096
2.6104
2.6120
2.6104
2.6112
2.6120
2.6128
2.6120
2.6136
2.6120
2.6120
2.6152
2.6112
2.6144
2.6112
2.6144
2.6120
2.6128
2.6120
2.6120
2.6128
2.6128
2.6112
2.6128
2.6120
2.6112
2.6128
2.6128
2.6136
2.6120
2.6144
2.6136
2.6112
2.6096
2.6128
2.6112
2.6120
2.6128
2.6104
2.6104
2.6112
2.6087
2.6104
2.6112
2.6104
2.6079
2.6087
2.6071
2.6079
2.6071
2.6071
2.6063
2.6079
2.6087
2.6055
2.6055
2.6055
2.6063
2.6071
2.6071
2.6063
2.6055
2.6063
2.6039
2.6063
2.6055
2.6047
2.6047
2.6047
2.6031
2.6031
2.6055
2.6023
2.6023
2.6023
2.6023
2.6007
2.6023
2.6007
2.6031
2.6023
2.5999
2.6015
2.6007
2.5991
2.6031
2.6007
2.5999
2.5999
2.5991
2.6023
2.6007
2.5999
2.5999
2.5991
2.5999
2.6007
2.6007
2.6007
2.5983
2.6015
2.5999
2.5991
2.5999
2.6015
2.6007
2.5991
2.6007
2.5991
2.5991
2.5991
2.5999
2.5991
2.6007
2.5991
2.5991
2.5999
2.5999
2.6007
2.5983
2.5999
2.5999
2.6007
2.6007
2.6007
2.6007
2.6007
2.6007
2.5999
2.5983
2.5975
2.5991
2.5999
2.6015
2.5991
2.6015
2.5999
2.6007
2.5991
2.5991
2.5991
2.5991
2.5999
2.5999
2.5999
2.6015
2.5999
2.6007
2.5991
2.6007
2.5975
2.5975
2.5991
2.5975
2.5983
2.5975
2.5967
2.6015
2.5975
2.5983
2.5983
2.5967
2.5967
2.5967
2.5991
2.5959
2.5975
2.5959
2.5959
2.5983
2.5959
2.5942
2.5959
2.5950
2.5959
2.5934
2.5934
2.5942
2.5934
2.5934
2.5926
2.5918
2.5918
2.5910
2.5918
2.5918
2.5918
2.5886
2.5902
2.5902
2.5894
2.5870
2.5878
2.5886
2.5886
2.5870
2.5862
2.5870
2.5870
2.5854
2.5854
2.5854
2.5854
2.5838
2.5862
2.5830
2.5846
2.5830
2.5846
2.5838
2.5846
2.5822
2.5838
2.5805
2.5814
2.5822
2.5830
2.5805
2.5797
2.5814
2.5797
2.5781
2.5797
2.5797
2.5781
2.5797
2.5781
2.5789
2.5789
2.5781
2.5773
2.5757
2.5773
2.5789
2.5757
2.5757
2.5741
2.5773
2.5757
2.5749
2.5749
2.5749
2.5749
2.5733
2.5741
2.5749
2.5749
2.5757
2.5749
2.5733
2.5741
2.5749
2.5741
2.5757
2.5733
2.5717
2.5717
2.5749
2.5733
2.5749
2.5741
2.5733
2.5741
2.5717
2.5725
2.5741
2.5725
2.5709
2.5741
2.5717
2.5717
2.5725
2.5717
2.5725
2.5717
2.5733
2.5717
2.5717
2.5717
2.5717
2.5709
2.5725
2.5725
2.5717
2.5709
2.5709
2.5717
2.5725
2.5709
2.5709
2.5725
2.5717
2.5717
2.5733
2.5709
2.5725
2.5693
2.5709
2.5709
2.5717
2.5717
2.5717
2.5685
2.5685
2.5685
2.5677
2.5701
2.5701
2.5693
2.5701
2.5693
2.5677
2.5652
2.5693
2.5685
2.5677
2.5677
2.5669
2.5669
2.5693
2.5669
2.5677
2.5660
2.5669
2.5636
2.5660
2.5669
2.5644
2.5644
2.5628
2.5644
2.5644
2.5636
2.5636
2.5652
2.5644
2.5660
2.5628
2.5636
2.5636
2.5612
2.5596
2.5596
2.5604
2.5604
2.5612
2.5596
2.5588
2.5596
2.5612
2.5620
2.5588
2.5612
2.5580
2.5596
2.5588
2.5612
2.5596
2.5604
2.5596
2.5604
2.5588
2.5612
2.5596
2.5580
2.5588
2.5572
2.5572
2.5572
2.5564
2.5556
2.5532
2.5548
2.5523
2.5523
2.5532
2.5556
2.5540
2.5532
2.5523
2.5540
2.5532
2.5523
2.5523
2.5507
2.5499
2.5499
2.5491
2.5491
2.5459
2.5467
2.5475
2.5443
2.5459
2.5419
2.5443
2.5435
2.5435
2.5435
2.5419
2.5435
2.5419
2.5427
2.5435
2.5419
2.5411
2.5395
2.5395
2.5387
2.5378
2.5370
2.5362
2.5370
2.5362
2.5362
2.5346
2.5346
2.5330
2.5338
2.5330
2.5330
2.5338
2.5330
2.5346
2.5322
2.5330
2.5314
2.5322
2.5290
2.5306
2.5290
2.5290
2.5290
2.5298
2.5274
2.5290
2.5274
2.5266
2.5266
2.5250
2.5266
2.5250
2.5250
2.5250
2.5258
2.5217
2.5233
2.5217
2.5201
2.5201
2.5217
2.5209
2.5201
2.5193
2.5193
2.5177
2.5177
2.5193
2.5185
2.5177
2.5169
2.5169
2.5169
2.5193
2.5169
2.5153
2.5137
2.5137
2.5137
2.5121
2.5113
2.5105
2.5096
2.5113
2.5113
2.5096
2.5105
2.5105
2.5088
2.5080
2.5072
2.5072
2.5040
2.5080
2.5064
2.5056
2.5056
2.5056
2.5064
2.5048
2.5048
2.5032
2.5024
2.5008
2.5016
2.5032
2.5032
2.5032
2.5024
2.5008
2.5008
2.5000
2.4992
2.5000
2.5000
2.4976
2.4976
2.4984
2.4976
2.4992
2.4960
2.4968
2.4960
2.4984
2.4935
2.4943
2.4935
2.4927
2.4927
2.4935
2.4919
2.4943
2.4927
2.4919
2.4911
2.4943
2.4927
2.4935
2.4919
2.4935
2.4903
2.4927
2.4911
2.4887
2.4895
2.4927
2.4895
2.4871
2.4863
2.4871
2.4863
2.4855
2.4847
2.4839
2.4847
2.4847
2.4815
2.4839
2.4815
2.4823
2.4806
2.4806
2.4815
2.4815
2.4815
2.4790
2.4815
2.4790
2.4782
2.4782
2.4758
2.4782
2.4774
2.4774
2.4766
2.4774
2.4766
2.4766
2.4758
2.4766
2.4750
2.4742
2.4726
2.4742
2.4734
2.4742
2.4734
2.4742
2.4726
2.4702
2.4726
2.4734
2.4726
2.4694
2.4710
2.4702
2.4702
2.4686
2.4694
2.4661
2.4669
2.4686
2.4669
2.4669
2.4669
2.4653
2.4661
2.4653
2.4661
2.4645
2.4661
2.4629
2.4653
2.4629
2.4621
2.4613
2.4629
2.4613
2.4597
2.4621
2.4621
2.4605
2.4613
2.4605
2.4589
2.4589
2.4581
2.4581
2.4589
2.4581
2.4557
2.4581
2.4565
2.4565
2.4565
2.4565
2.4565
2.4549
2.4541
2.4549
2.4524
2.4524
2.4533
2.4508
2.4541
2.4524
2.4524
2.4508
2.4508
2.4500
2.4492
2.4516
2.4500
2.4500
2.4492
2.4484
2.4492
2.4476
2.4468
2.4460
2.4452
2.4476
2.4468
2.4460
2.4468
2.4436
2.4452
2.4452
2.4452
2.4444
2.4428
2.4444
2.4428
2.4420
2.4404
2.4420
2.4420
2.4412
2.4404
2.4379
2.4388
2.4388
2.4396
2.4379
2.4363
2.4379
2.4371
2.4371
2.4363
2.4355
2.4347
2.4339
2.4339
2.4339
2.4315
2.4331
2.4323
2.4307
2.4307
2.4339
2.4307
2.4291
2.4307
2.4283
2.4275
2.4283
2.4291
2.4275
2.4267
2.4267
2.4275
2.4259
2.4259
2.4259
2.4251
2.4242
2.4234
2.4251
2.4226
2.4234
2.4210
2.4226
2.4226
2.4218
2.4210
2.4194
2.4202
2.4202
2.4178
2.4186
2.4186
2.4170
2.4186
2.4178
2.4162
2.4170
2.4154
2.4170
2.4146
2.4146
2.4130
2.4138
2.4130
2.4154
2.4130
2.4130
2.4138
2.4122
2.4097
2.4097
2.4097
2.4081
2.4106
2.4097
2.4065
2.4065
2.4081
2.4081
2.4081
2.4065
2.4049
2.4049
2.4057
2.4057
2.4049
2.4049
2.4049
2.4033
2.4049
2.4009
2.4017
2.4001
2.4009
2.4009
2.4017
2.4009
2.3985
2.4001
2.3993
2.3977
2.3985
2.3977
2.3977
2.3944
2.3952
2.3969
2.3952
2.3944
2.3944
2.3944
2.3944
2.3936
2.3928
2.3928
2.3912
2.3928
2.3912
2.3904
2.3912
2.3904
2.3880
2.3896
2.3896
2.3880
2.3880
2.3864
2.3880
2.3872
2.3872
2.3864
2.3864
2.3848
2.3856
2.3840
2.3848
2.3824
2.3832
2.3815
2.3815
2.3824
2.3807
2.3807
2.3815
2.3799
2.3791
2.3799
2.3799
2.3799
2.3815
2.3807
2.3824
2.3815
2.3807
2.3848
2.3840
2.3840
2.3840
2.3872
2.3872
2.3872
2.3904
2.3912
2.3920
2.3960
2.3985
2.3969
2.4017
2.4049
2.4057
2.4089
2.4114
2.4138
2.4170
2.4226
2.4251
2.4299
2.4347
2.4371
2.4412
2.4428
2.4476
2.4524
2.4549
2.4621
2.4645
2.4694
2.4726
2.4782
2.4815
2.4839
2.4895
2.4943
2.4968
2.5032
2.5064
2.5088
2.5129
2.5153
2.5161
2.5233
2.5306
2.5346
2.5370
2.5411
2.5427
2.5459
2.5483
2.5523
2.5540
2.5604
2.5612
2.5636
2.5677
2.5709
2.5709
2.5741
2.5757
2.5773
2.5797
2.5805
2.5854
2.5854
2.5870
2.5878
2.5878
2.5902
2.5926
2.5910
2.5934
2.5959
2.5967
2.5983
2.5975
2.5983
2.5991
2.6023
2.6023
2.6039
2.6039
2.6055
2.6047
2.6039
2.6055
2.6063
2.6079
2.6079
2.6087
2.6096
2.6096
2.6104
2.6112
2.6104
2.6120
2.6144
2.6128
2.6104
2.6112
2.6104
2.6128
2.6112
2.6128
2.6128
2.6136
2.6136
2.6120
2.6128
2.6128
2.6128
2.6120
2.6120
2.6136
2.6136
2.6112
2.6120
2.6112
2.6112
2.6128
2.6112
2.6112
2.6120
2.6112
2.6128
2.6128
2.6120
2.6112
2.6136
2.6087
2.6096
2.6087
2.6087
2.6096
2.6079
2.6087
2.6087
2.6079
2.6096
2.6079
2.6071
2.6071
2.6071
2.6063
2.6071
2.6039
2.6047
2.6055
2.6039
2.6039
2.6063
2.6039
2.6047
2.6031
2.6047
2.6047
2.6055
2.6031
2.6023
2.6023
2.6015
2.6031
2.6039
2.6007
2.6039
2.6007
2.6031
2.6023
2.6015
2.5999
2.5999
2.5991
2.5999
2.6007
2.5991
2.5999
2.5999
2.5991
2.5975
2.5934
2.5975
2.5983
2.5983
2.5975
2.5983
2.5975
2.5983
2.5983
2.5983
2.5959
2.5967
2.5975
2.5999
2.5967
2.5967
2.5959
2.5975
2.5975
2.5967
2.5983
2.5967
2.5975
2.5942
2.5959
2.5959
2.5959
2.5950
2.5991
2.5959
2.5959
2.5991
2.5950
2.5967
2.5959
2.5967
2.5975
2.5967
2.5991
2.5959
2.5959
2.5959
2.5959
2.5983
2.5959
2.5942
2.5967
2.5967
2.5942
2.5959
2.5942
2.5959
2.5950
2.5967
2.5959
2.5959
2.5950
2.5959
2.5950
2.5967
2.5967
2.5959
2.5934
2.5934
2.5934
2.5926
2.5918
2.5942
2.5967
2.5950
2.5942
2.5959
2.5910
2.5926
2.5902
2.5934
2.5910
2.5926
2.5918
2.5918
2.5910
2.5918
2.5910
2.5902
2.5902
2.5886
2.5902
2.5886
2.5886
2.5902
2.5886
2.5886
2.5886
2.5878
2.5878
2.5870
2.5862
2.5862
2.5870
2.5862
2.5862
2.5862
2.5870
2.5862
2.5846
2.5838
2.5854
2.5846
2.5838
2.5830
2.5822
2.5830
2.5838
2.5822
2.5830
2.5822
2.5822
2.5822
2.5846
2.5805
2.5797
2.5814
2.5797
2.5797
2.5805
2.5789
2.5797
2.5797
2.5781
2.5773
2.5781
2.5805
2.5757
2.5789
2.5765
2.5773
2.5757
2.5773
2.5805
2.5789
2.5773
2.5773
2.5773
2.5773
2.5765
2.5781
2.5765
2.5765
2.5757
2.5773
2.5749
2.5757
2.5757
2.5765
2.5765
2.5765
2.5733
2.5765
2.5741
2.5765
2.5749
2.5765
2.5741
2.5749
2.5765
2.5749
2.5765
2.5757
2.5765
2.5733
2.5773
2.5749
2.5765
2.5765
2.5757
2.5757
2.5741
2.5757
2.5773
2.5765
2.5741
2.5765
2.5757
2.5749
2.5733
2.5757
2.5765
2.5749
2.5749
2.5725
2.5741
2.5741
2.5757
2.5773
2.5773
2.5749
2.5741
2.5749
2.5741
2.5757
2.5725
2.5757
2.5733
2.5749
2.5749
2.5749
2.5741
2.5741
2.5725
2.5741
2.5701
2.5733
2.5741
2.5725
2.5733
2.5733
2.5717
2.5717
2.5717
2.5717
2.5733
2.5717
2.5717
2.5709
2.5693
2.5733
2.5701
2.5709
2.5701
2.5693
2.5685
2.5685
2.5693
2.5693
2.5693
2.5701
2.5685
2.5677
2.5685
2.5685
2.5677
2.5685
2.5652
2.5669
2.5669
2.5644
2.5677
2.5660
2.5660
2.5636
2.5644
2.5660
2.5636
2.5628
2.5628
2.5628
2.5628
2.5620
2.5636
2.5620
2.5620
2.5596
2.5604
2.5596
2.5588
2.5596
2.5596
2.5596
2.5596
2.5580
2.5588
2.5588
2.5556
2.5580
2.5580
2.5572
2.5580
2.5556
2.5564
2.5548
2.5548
2.5540
2.5556
2.5556
2.5556
2.5532
2.5532
2.5532
2.5523
2.5532
2.5507
2.5507
2.5491
2.5515
2.5499
2.5499
2.5491
2.5507
2.5507
2.5483
2.5491
2.5467
2.5475
2.5467
2.5467
2.5491
2.5467
2.5467
2.5435
2.5435
2.5435
2.5451
2.5435
2.5459
2.5459
2.5427
2.5443
2.5443
2.5435
2.5435
2.5435
2.5443
2.5475
2.5427
2.5435
2.5451
2.5459
2.5467
2.5427
2.5427
2.5427
2.5427
2.5427
2.5411
2.5411
2.5395
2.5387
2.5419
2.5395
2.5387
2.5395
2.5362
2.5370
2.5362
2.5370
2.5378
2.5362
2.5354
2.5354
2.5354
2.5354
2.5338
2.5346
2.5354
2.5338
2.5330
2.5322
2.5330
2.5338
2.5346
2.5354
2.5322
2.5330
2.5330
2.5330
2.5330
2.5322
2.5314
2.5290
2.5314
2.5290
2.5282
2.5282
2.5290
2.5290
2.5274
2.5258
2.5266
2.5282
2.5266
2.5258
2.5250
2.5242
2.5242
2.5242
2.5233
2.5233
2.5233
2.5242
2.5233
2.5225
2.5233
2.5209
2.5201
2.5233
2.5217
2.5209
2.5225
2.5201
2.5201
2.5177
2.5193
2.5193
2.5185
2.5185
2.5169
2.5185
2.5185
2.5161
2.5177
2.5169
2.5153
2.5169
2.5169
2.5169
2.5153
2.5145
2.5153
2.5145
2.5161
2.5161
2.5169
2.5145
2.5121
2.5137
2.5121
2.5137
2.5113
2.5096
2.5105
2.5096
2.5105
2.5105
2.5088
2.5096
2.5088
2.5080
2.5080
2.5072
2.5056
2.5072
2.5072
2.5056
2.5048
2.5064
2.5056
2.5048
2.5024
2.5040
2.5048
2.5040
2.5040
2.5040
2.5032
2.5008
2.5016
2.5024
2.5008
2.5000
2.5016
2.5024
2.5040
2.5008
2.5000
2.5008
2.5008
2.5016
2.4984
2.4992
2.5008
2.4992
2.4984
2.4984
2.4984
2.4968
2.4992
2.4968
2.4976
2.4984
2.4968
2.4951
2.4943
2.4935
2.4951
2.4943
2.4935
2.4960
2.4960
2.4935
2.4943
2.4951
2.4927
2.4943
2.4903
2.4911
2.4943
2.4911
2.4911
2.4927
2.4919
2.4903
2.4895
2.4903
2.4903
2.4919
2.4887
2.4879
2.4887
2.4887
2.4887
2.4871
2.4887
2.4887
2.4863
2.4895
2.4871
2.4903
2.4871
2.4879
2.4863
2.4855
2.4847
2.4863
2.4855
2.4855
2.4855
2.4847
2.4831
2.4823
2.4823
2.4806
2.4839
2.4831
2.4823
2.4815
2.4823
2.4798
2.4815
2.4815
2.4806
2.4823
2.4806
2.4815
2.4798
2.4774
2.4766
2.4758
2.4790
2.4782
2.4782
2.4774
2.4758
2.4758
2.4766
2.4766
2.4758
2.4766
2.4742
2.4774
2.4750
2.4750
2.4766
2.4750
2.4734
2.4742
2.4726
2.4710
2.4726
2.4702
2.4718
2.4686
2.4686
2.4694
2.4686
2.4694
2.4653
2.4678
2.4653
2.4653
2.4669
2.4661
2.4661
2.4661
2.4637
2.4645
2.4621
2.4629
2.4613
2.4621
2.4605
2.4621
2.4605
2.4613
2.4613
2.4613
2.4597
2.4605
2.4589
2.4581
2.4581
2.4581
2.4589
2.4581
2.4581
2.4573
2.4581
2.4557
2.4557
2.4541
2.4565
2.4557
2.4557
2.4541
2.4557
2.4533
2.4516
2.4541
2.4508
2.4508
2.4524
2.4500
2.4500
2.4508
2.4500
2.4508
2.4476
2.4476
2.4468
2.4468
2.4468
2.4468
2.4460
2.4452
2.4476
2.4444
2.4452
2.4436
2.4436
2.4428
2.4420
2.4412
2.4420
2.4436
2.4404
2.4412
2.4396
2.4412
2.4412
2.4404
2.4379
2.4404
2.4396
2.4379
2.4371
2.4363
2.4388
2.4363
2.4363
2.4347
2.4355
2.4347
2.4323
2.4355
2.4315
2.4339
2.4339
2.4315
2.4315
2.4307
2.4315
2.4323
2.4323
2.4299
2.4283
2.4299
2.4283
2.4283
2.4283
2.4283
2.4259
2.4267
2.4267
2.4251
2.4251
2.4242
2.4259
2.4226
2.4226
2.4234
2.4234
2.4226
2.4226
2.4234
2.4202
2.4218
2.4186
2.4202
2.4178
2.4186
2.4218
2.4186
2.4194
2.4178
2.4210
2.4178
2.4178
2.4202
2.4194
2.4202
2.4178
2.4194
2.4186
2.4210
2.4218
2.4218
2.4234
2.4218
2.4234
2.4242
2.4242
2.4242
2.4275
2.4275
2.4315
2.4323
2.4355
2.4363
2.4388
2.4436
2.4444
2.4492
2.4492
2.4533
2.4565
2.4613
2.4597
2.4629
2.4653
2.4702
2.4734
2.4790
2.4798
2.4823
2.4879
2.4895
2.4935
2.4976
2.5008
2.5048
2.5072
2.5121
2.5137
2.5161
2.5169
2.5225
2.5274
2.5346
2.5354
2.5378
2.5419
2.5427
2.5475
2.5499
2.5548
2.5564
2.5580
2.5620
2.5644
2.5669
2.5677
2.5693
2.5733
2.5749
2.5773
2.5773
2.5781
2.5822
2.5838
2.5854
2.5894
2.5910
2.5934
2.5926
2.5942
2.5950
2.5975
2.5975
2.5999
2.5999
2.6023
2.6031
2.6055
2.6055
2.6055
2.6071
2.6071
2.6096
2.6104
2.6104
2.6112
2.6120
2.6128
2.6136
2.6160
2.6160
2.6168
2.6152
2.6168
2.6168
2.6192
2.6192
2.6208
2.6216
2.6208
2.6192
2.6224
2.6224
2.6232
2.6249
2.6192
2.6208
2.6224
2.6232
2.6200
2.6232
2.6208
2.6249
2.6241
2.6224
2.6249
2.6257
2.6265
2.6241
2.6249
2.6241
2.6249
2.6224
2.6265
2.6257
2.6224
2.6241
2.6249
2.6224
2.6232
2.6249
2.6232
2.6257
2.6241
2.6232
2.6224
2.6241
2.6216
2.6241
2.6216
2.6232
2.6241
2.6224
2.6232
2.6241
2.6216
2.6224
2.6216
2.6224
2.6241
2.6224
2.6192
2.6208
2.6216
2.6216
2.6200
2.6208
2.6208
2.6200
2.6208
2.6192
2.6200
2.6200
2.6216
2.6200
2.6208
2.6192
2.6200
2.6224
2.6176
2.6184
2.6192
2.6176
2.6176
2.6184
2.6216
2.6192
2.6184
2.6184
2.6176
2.6184
2.6192
2.6184
2.6184
2.6160
2.6192
2.6184
2.6184
2.6184
2.6192
2.6176
2.6200
2.6184
2.6216
2.6192
2.6168
2.6192
2.6168
2.6184
2.6176
2.6192
2.6176
2.6192
2.6168
2.6168
2.6216
2.6184
2.6192
2.6176
2.6200
2.6200
2.6208
2.6168
2.6216
2.6200
2.6192
2.6200
2.6200
2.6184
2.6200
2.6208
2.6176
2.6184
2.6216
2.6192
2.6216
2.6200
2.6192
2.6200
2.6192
2.6192
2.6208
2.6176
2.6224
2.6208
2.6184
2.6216
2.6192
2.6208
2.6216
2.6192
2.6208
2.6216
2.6208
2.6184
2.6216
2.6224
2.6208
2.6224
2.6208
2.6192
2.6192
2.6208
2.6192
2.6208
2.6216
2.6200
2.6208
2.6208
2.6192
2.6200
2.6200
2.6200
2.6192
2.6192
2.6200
2.6192
2.6184
2.6168
2.6192
2.6184
2.6152
2.6160
2.6176
2.6176
2.6184
2.6168
2.6192
2.6168
2.6168
2.6168
2.6168
2.6160
2.6160
2.6152
2.6152
2.6144
2.6144
2.6136
2.6144
2.6128
2.6128
2.6112
2.6120
2.6112
2.6120
2.6104
2.6104
2.6087
2.6096
2.6104
2.6096
2.6071
2.6079
2.6087
2.6079
2.6055
2.6087
2.6063
2.6079
2.6055
2.6047
2.6071
2.6063
2.6055
2.6039
2.6039
2.6055
2.6047
2.6039
2.6031
2.6031
2.6031
2.6015
2.6031
2.6007
2.5991
2.6007
2.6015
2.6015
2.6015
2.6007
2.5999
2.5991
2.6007
2.5999
2.5999
2.6015
2.6007
2.5991
2.6007
2.5991
2.5975
2.5983
2.5991
2.5983
2.5967
2.5999
2.5975
2.5983
2.5967
2.5975
2.5983
2.5950
2.5975
2.5950
2.5942
2.5967
2.5950
2.5959
2.5975
2.5950
2.5959
2.5959
2.5942
2.5950
2.5950
2.5967
2.5942
2.5959
2.5959
2.5975
2.5959
2.5967
2.5967
2.5942
2.5950
2.5967
2.5959
2.5950
2.5950
2.5959
2.5967
2.5950
2.5942
2.5950
2.5942
2.5950
2.5942
2.5934
2.5926
2.5959
2.5926
2.5934
2.5934
2.5950
2.5950
2.5926
2.5918
2.5934
2.5918
2.5934
2.5926
2.5926
2.5918
2.5926
2.5934
2.5918
2.5926
2.5926
2.5902
2.5902
2.5910
2.5902
2.5894
2.5918
2.5918
2.5894
2.5894
2.5894
2.5910
2.5918
2.5894
2.5894
2.5886
2.5878
2.5878
2.5878
2.5870
2.5854
2.5870
2.5870
2.5870
2.5870
2.5854
2.5854
2.5854
2.5846
2.5846
2.5846
2.5830
2.5846
2.5822
2.5838
2.5805
2.5822
2.5814
2.5814
2.5830
2.5805
2.5830
2.5814
2.5822
2.5814
2.5814
2.5822
2.5822
2.5805
2.5814
2.5814
2.5830
2.5830
2.5822
2.5805
2.5830
2.5814
2.5814
2.5789
2.5805
2.5797
2.5797
2.5773
2.5773
2.5781
2.5773
2.5741
2.5741
2.5749
2.5741
2.5749
2.5733
2.5749
2.5725
2.5725
2.5717
2.5701
2.5717
2.5725
2.5709
2.5685
2.5693
2.5701
2.5677
2.5685
2.5685
2.5660
2.5677
2.5660
2.5660
2.5660
2.5636
2.5652
2.5636
2.5636
2.5652
2.5628
2.5652
2.5644
2.5604
2.5612
2.5620
2.5612
2.5604
2.5588
2.5580
2.5580
2.5596
2.5596
2.5572
2.5572
2.5572
2.5564
2.5564
2.5572
2.5548
2.5572
2.5556
2.5548
2.5556
2.5540
2.5540
2.5523
2.5540
2.5523
2.5499
2.5499
2.5491
2.5523
2.5515
2.5491
2.5491
2.5483
2.5499
2.5491
2.5523
2.5491
2.5475
2.5491
2.5483
2.5483
2.5451
2.5451
2.5459
2.5443
2.5435
2.5443
2.5435
2.5435
2.5427
2.5419
2.5427
2.5419
2.5403
2.5411
2.5395
2.5419
2.5395
2.5403
2.5411
2.5387
2.5411
2.5403
2.5395
2.5387
2.5395
2.5370
2.5378
2.5346
2.5362
2.5370
2.5346
2.5330
2.5354
2.5330
2.5346
2.5346
2.5330
2.5330
2.5346
2.5338
2.5330
2.5330
2.5330
2.5298
2.5306
2.5274
2.5282
2.5282
2.5290
2.5282
2.5274
2.5282
2.5258
2.5266
2.5250
2.5258
2.5258
2.5282
2.5282
2.5266
2.5258
2.5274
2.5258
2.5242
2.5225
2.5242
2.5242
2.5225
2.5193
2.5217
2.5217
2.5209
2.5209
2.5217
2.5201
2.5193
2.5185
2.5201
2.5193
2.5185
2.5169
2.5193
2.5185
2.5169
2.5161
2.5153
2.5169
2.5169
2.5177
2.5177
2.5145
2.5161
2.5145
2.5137
2.5137
2.5153
2.5129
2.5145
2.5137
2.5129
2.5129
2.5105
2.5105
2.5113
2.5096
2.5121
2.5080
2.5088
2.5088
2.5080
2.5080
2.5088
2.5072
2.5056
2.5056
2.5048
2.5032
2.5040
2.5040
2.5040
2.5032
2.5032
2.5032
2.5024
2.5016
2.5008
2.5016
2.5016
2.4992
2.5016
2.5000
2.4992
2.5016
2.5016
2.5000
2.5000
2.4960
2.4976
2.4976
2.4943
2.4968
2.4943
2.4960
2.4935
2.4968
2.4951
2.4951
2.4935
2.4935
2.4935
2.4919
2.4927
2.4919
2.4919
2.4919
2.4919
2.4903
2.4919
2.4903
2.4903
2.4911
2.4919
2.4887
2.4871
2.4871
2.4903
2.4887
2.4871
2.4879
2.4871
2.4871
2.4863
2.4871
2.4863
2.4871
2.4855
2.4847
2.4855
2.4839
2.4839
2.4831
2.4855
2.4823
2.4831
2.4798
2.4806
2.4815
2.4815
2.4815
2.4798
2.4806
2.4790
2.4798
2.4806
2.4782
2.4782
2.4774
2.4766
2.4782
2.4774
2.4758
2.4758
2.4758
2.4750
2.4750
2.4766
2.4750
2.4734
2.4742
2.4742
2.4734
2.4734
2.4702
2.4710
2.4694
2.4678
2.4710
2.4694
2.4694
2.4702
2.4702
2.4702
2.4678
2.4661
2.4686
2.4653
2.4653
2.4686
2.4653
2.4686
2.4661
2.4653
2.4653
2.4637
2.4637
2.4637
2.4637
2.4613
2.4653
2.4621
2.4645
2.4621
2.4613
2.4613
2.4605
2.4637
2.4637
2.4613
2.4613
2.4605
2.4621
2.4605
2.4581
2.4573
2.4581
2.4573
2.4573
2.4557
2.4557
2.4549
2.4541
2.4541
2.4541
2.4549
2.4524
2.4516
2.4508
2.4508
2.4524
2.4508
2.4500
2.4524
2.4500
2.4484
2.4468
2.4476
2.4468
2.4484
2.4452
2.4468
2.4452
2.4476
2.4468
2.4444
2.4452
2.4436
2.4420
2.4428
2.4404
2.4420
2.4436
2.4420
2.4420
2.4396
2.4412
2.4420
2.4396
2.4388
2.4388
2.4371
2.4379
2.4371
2.4363
2.4371
2.4363
2.4347
2.4347
2.4331
2.4331
2.4323
2.4323
2.4315
2.4331
2.4291
2.4283
2.4299
2.4283
2.4267
2.4283
2.4275
2.4267
2.4251
2.4251
2.4234
2.4242
2.4242
2.4226
2.4210
2.4218
2.4234
2.4218
2.4210
2.4210
2.4202
2.4194
2.4178
2.4178
2.4162
2.4178
2.4178
2.4162
2.4154
2.4170
2.4162
2.4154
2.4146
2.4138
2.4122
2.4122
2.4130
2.4114
2.4097
2.4130
2.4138
2.4106
2.4073
2.4114
2.4097
2.4089
2.4106
2.4122
2.4138
2.4106
2.4081
2.4114
2.4106
2.4106
2.4130
2.4114
2.4106
2.4130
2.4138
2.4130
2.4162
2.4154
2.4178
2.4210
2.4210
2.4251
2.4259
2.4275
2.4291
2.4331
2.4355
2.4363
2.4388
2.4428
2.4460
2.4476
2.4533
2.4557
2.4565
2.4613
2.4629
2.4678
2.4726
2.4750
2.4798
2.4847
2.4847
2.4911
2.4927
2.4968
2.5008
2.5040
2.5080
2.5080
2.5121
2.5153
2.5153
2.5177
2.5250
2.5306
2.5338
2.5370
2.5378
2.5419
2.5435
2.5507
2.5499
2.5540
2.5548
2.5556
2.5604
2.5596
2.5644
2.5685
2.5693
2.5717
2.5733
2.5741
2.5765
2.5773
2.5781
2.5830
2.5830
2.5830
2.5854
2.5870
2.5878
2.5886
2.5902
2.5918
2.5918
2.5942
2.5942
2.5950
2.5959
2.5967
2.5975
2.6007
2.6015
2.5999
2.6023
2.6015
2.6031
2.6047
2.6031
2.6055
2.6039
2.6047
2.6063
2.6087
2.6087
2.6087
2.6096
2.6104
2.6096
2.6087
2.6112
2.6096
2.6104
2.6071
2.6112
2.6104
2.6112
2.6128
2.6128
2.6112
2.6112
2.6120
2.6104
2.6136
2.6112
2.6112
2.6120
2.6112
2.6096
2.6128
2.6120
2.6136
2.6120
2.6120
2.6120
2.6120
2.6120
2.6120
2.6112
2.6112
2.6136
2.6128
2.6120
2.6104
2.6128
2.6104
2.6120
2.6112
2.6120
2.6112
2.6104
2.6120
2.6104
2.6087
2.6096
2.6112
2.6096
2.6104
2.6087
2.6104
2.6096
2.6096
2.6096
2.6079
2.6087
2.6079
2.6071
2.6079
2.6087
2.6087
2.6087
2.6087
2.6079
2.6079
2.6063
2.6063
2.6047
2.6063
2.6063
2.6063
2.6063
2.6087
2.6063
2.6071
2.6063
2.6047
2.6055
2.6055
2.6055
2.6063
2.6063
2.6063
2.6047
2.6039
2.6063
2.6047
2.6039
2.6055
2.6031
2.6063
2.6063
2.6063
2.6047
2.6063
2.6055
2.6055
2.6063
2.6031
2.6063
2.6055
2.6039
2.6047
2.6023
2.6063
2.6055
2.6055
2.6047
2.6031
2.6047
2.6047
2.6055
2.6047
2.6063
2.6039
2.6039
2.6063
2.6039
2.6039
2.6055
2.6063
2.6063
2.6071
2.6055
2.6023
2.6055
2.6039
2.6055
2.6047
2.6071
2.6047
2.6071
2.6031
2.6047
2.6055
2.6071
2.6063
2.6071
2.6071
2.6071
2.6063
2.6079
2.6071
2.6071
2.6079
2.6063
2.6055
2.6055
2.6031
2.6071
2.6055
2.6055
2.6071
2.6039
2.6055
2.6063
2.6039
2.6039
2.6031
2.6023
2.6039
2.6031
2.6047
2.6031
2.6015
2.6023
2.6031
2.6039
2.6023
2.6015
2.6007
2.6007
2.6039
2.5991
2.6023
2.6007
2.5999
2.6023
2.5991
2.5983
2.5983
2.5991
2.5991
2.5983
2.5991
2.5959
2.5950
2.5975
2.5975
2.5959
2.5950
2.5918
2.5918
2.5942
2.5950
2.5934
2.5942
2.5950
2.5902
2.5918
2.5918
2.5918
2.5918
2.5910
2.5910
2.5894
2.5902
2.5902
2.5894
2.5886
2.5878
2.5870
2.5886
2.5878
2.5854
2.5870
2.5886
2.5862
2.5862
2.5846
2.5854
2.5870
2.5854
2.5870
2.5862
2.5846
2.5854
2.5854
2.5846
2.5854
2.5846
2.5822
2.5846
2.5838
2.5838
2.5822
2.5822
2.5830
2.5830
2.5838
2.5822
2.5830
2.5822
2.5814
2.5822
2.5822
2.5830
2.5830
2.5822
2.5797
2.5797
2.5814
2.5805
2.5797
2.5789
2.5797
2.5805
2.5822
2.5814
2.5830
2.5805
2.5846
2.5805
2.5797
2.5805
2.5805
2.5789
2.5814
2.5814
2.5797
2.5797
2.5789
2.5789
2.5797
2.5797
2.5797
2.5789
2.5781
2.5789
2.5789
2.5805
2.5805
2.5781
2.5797
2.5789
2.5773
2.5781
2.5773
2.5781
2.5781
2.5773
2.5773
2.5797
2.5765
2.5773
2.5773
2.5797
2.5765
2.5789
2.5749
2.5741
2.5741
2.5773
2.5757
2.5797
2.5749
2.5749
2.5765
2.5757
2.5749
2.5757
2.5741
2.5733
2.5725
2.5749
2.5733
2.5717
2.5733
2.5717
2.5733
2.5741
2.5725
2.5741
2.5701
2.5733
2.5717
2.5725
2.5709
2.5709
2.5709
2.5709
2.5685
2.5709
2.5693
2.5701
2.5701
2.5693
2.5660
2.5660
2.5685
2.5669
2.5669
2.5709
2.5669
2.5644
2.5644
2.5652
2.5644
2.5636
2.5652
2.5644
2.5636
2.5628
2.5636
2.5620
2.5628
2.5612
2.5588
2.5612
2.5612
2.5644
2.5612
2.5604
2.5604
2.5596
2.5612
2.5596
2.5556
2.5580
2.5572
2.5572
2.5564
2.5572
2.5540
2.5556
2.5572
2.5556
2.5540
2.5548
2.5523
2.5532
2.5540
2.5548
2.5515
2.5515
2.5523
2.5499
2.5499
2.5475
2.5499
2.5507
2.5483
2.5483
2.5499
2.5483
2.5483
2.5475
2.5491
2.5451
2.5451
2.5459
2.5459
2.5435
2.5451
2.5443
2.5435
2.5427
2.5395
2.5435
2.5435
2.5411
2.5419
2.5403
2.5387
2.5387
2.5387
2.5395
2.5378
2.5387
2.5395
2.5395
2.5354
2.5362
2.5354
2.5370
2.5354
2.5378
2.5330
2.5322
2.5354
2.5314
2.5314
2.5322
2.5322
2.5330
2.5298
2.5322
2.5306
2.5306
2.5330
2.5298
2.5290
2.5298
2.5282
2.5290
2.5282
2.5266
2.5266
2.5266
2.5266
2.5274
2.5258
2.5258
2.5233
2.5233
2.5250
2.5225
2.5217
2.5225
2.5242
2.5225
2.5217
2.5225
2.5209
2.5209
2.5201
2.5217
2.5209
2.5193
2.5193
2.5201
2.5185
2.5177
2.5185
2.5161
2.5177
2.5177
2.5161
2.5177
2.5161
2.5193
2.5169
2.5153
2.5153
2.5145
2.5153
2.5105
2.5129
2.5129
2.5153
2.5113
2.5121
2.5113
2.5105
2.5096
2.5080
2.5121
2.5105
2.5088
2.5080
2.5088
2.5088
2.5072
2.5072
2.5072
2.5064
2.5080
2.5072
2.5056
2.5040
2.5080
2.5040
2.5040
2.5032
2.5032
2.5040
2.5056
2.5024
2.5024
2.5040
2.5048
2.5016
2.5024
2.5024
2.5008
2.5008
2.5016
2.4984
2.4984
2.5024
2.5000
2.4984
2.4992
2.4984
2.4960
2.4976
2.4992
2.4960
2.4951
2.4968
2.4960
2.4943
2.4951
2.4951
2.4960
2.4935
2.4943
2.4951
2.4919
2.4911
2.4943
2.4919
2.4911
2.4911
2.4903
2.4895
2.4895
2.4895
2.4919
2.4911
2.4903
2.4871
2.4879
2.4871
2.4871
2.4895
2.4879
2.4855
2.4871
2.4871
2.4855
2.4863
2.4855
2.4839
2.4863
2.4847
2.4863
2.4847
2.4839
2.4839
2.4855
2.4831
2.4831
2.4847
2.4855
2.4839
2.4855
2.4839
2.4839
2.4855
2.4847
2.4839
2.4863
2.4847
2.4855
2.4831
2.4839
2.4806
2.4823
2.4815
2.4831
2.4823
2.4815
2.4815
2.4815
2.4798
2.4798
2.4790
2.4782
2.4774
2.4790
2.4782
2.4758
2.4758
2.4766
2.4766
2.4758
2.4750
2.4758
2.4742
2.4742
2.4750
2.4734
2.4750
2.4742
2.4718
2.4750
2.4742
2.4718
2.4726
2.4726
2.4718
2.4694
2.4694
2.4694
2.4694
2.4678
2.4718
2.4694
2.4702
2.4669
2.4661
2.4661
2.4661
2.4669
2.4661
2.4629
2.4661
2.4653
2.4629
2.4661
2.4661
2.4645
2.4621
2.4629
2.4645
2.4613
2.4621
2.4613
2.4589
2.4605
2.4605
2.4581
2.4597
2.4597
2.4589
2.4605
2.4581
2.4589
2.4565
2.4565
2.4573
2.4573
2.4557
2.4565
2.4565
2.4549
2.4524
2.4533
2.4541
2.4541
2.4516
2.4533
2.4533
2.4508
2.4541
2.4541
2.4500
2.4492
2.4516
2.4500
2.4508
2.4492
2.4508
2.4500
2.4484
2.4476
2.4500
2.4468
2.4484
2.4452
2.4484
2.4468
2.4444
2.4436
2.4460
2.4452
2.4436
2.4436
2.4420
2.4420
2.4436
2.4444
2.4396
2.4428
2.4412
2.4428
2.4436
2.4420
2.4412
2.4428
2.4428
2.4436
2.4396
2.4388
2.4388
2.4388
2.4388
2.4371
2.4355
2.4363
2.4347
2.4339
2.4355
2.4339
2.4323
2.4331
2.4323
2.4307
2.4307
2.4323
2.4291
2.4299
2.4299
2.4283
2.4275
2.4267
2.4299
2.4291
2.4275
2.4259
2.4315
2.4259
2.4275
2.4259
2.4267
2.4267
2.4259
2.4234
2.4234
2.4226
2.4226
2.4210
2.4234
2.4210
2.4202
2.4186
2.4210
2.4194
2.4202
2.4194
2.4210
2.4194
2.4162
2.4170
2.4178
2.4162
2.4146
2.4154
2.4154
2.4146
2.4146
2.4130
2.4146
2.4138
2.4114
2.4114
2.4097
2.4114
2.4106
2.4114
2.4057
2.4081
2.4065
2.4073
2.4081
2.4073
2.4065
2.4049
2.4057
2.4033
2.4033
2.4057
2.4041
2.4041
2.4049
2.4033
2.4041
2.4049
2.4017
2.4041
2.3985
2.4017
2.4009
2.4017
2.4033
2.4001
2.4033
2.4017
2.4009
2.4049
2.4041
2.4057
2.4057
2.4081
2.4041
2.4073
2.4089
2.4097
2.4114
2.4146
2.4146
2.4162
2.4178
2.4202
2.4226
2.4242
2.4259
2.4291
2.4315
2.4355
2.4379
2.4404
2.4444
2.4468
2.4508
2.4533
2.4573
2.4613
2.4629
2.4694
2.4710
2.4726
2.4806
2.4831
2.4831
2.4887
2.4903
2.4943
2.4984
2.5008
2.5040
2.5072
2.5105
2.5129
2.5161
2.5169
2.5201
2.5242
2.5298
2.5298
2.5346
2.5354
2.5411
2.5411
2.5459
2.5459
2.5499
2.5499
2.5523
2.5556
2.5572
2.5596
2.5612
2.5628
2.5652
2.5660
2.5709
2.5701
2.5717
2.5717
2.5741
2.5741
2.5781
2.5773
2.5789
2.5805
2.5822
2.5805
2.5846
2.5838
2.5854
2.5854
2.5878
2.5870
2.5886
2.5902
2.5902
2.5918
2.5902
2.5918
2.5926
2.5926
2.5934
2.5934
2.5934
2.5950
2.5942
2.5950
2.5950
2.5950
2.5959
2.5959
2.5967
2.5959
2.5967
2.5959
2.5999
2.5991
2.5967
2.5991
2.5967
2.5975
2.6015
2.5975
2.5950
2.5991
2.5967
2.5967
2.5983
2.5975
2.5975
2.5999
2.5983
2.5967
2.5975
2.5991
2.5991
2.5983
2.5983
2.5967
2.5999
2.5950
2.5967
2.5983
2.5975
2.5967
2.5959
2.5959
2.5967
2.5950
2.5967
2.5967
2.5950
2.5950
2.5950
2.5942
2.5942
2.5934
2.5950
2.5934
2.5918
2.5942
2.5926
2.5942
2.5910
2.5926
2.5918
2.5942
2.5918
2.5926
2.5918
2.5934
2.5926
2.5910
2.5910
2.5918
2.5894
2.5926
2.5878
2.5926
2.5894
2.5902
2.5870
2.5894
2.5910
2.5870
2.5886
2.5910
2.5894
2.5894
2.5894
2.5886
2.5878
2.5878
2.5878
2.5886
2.5878
2.5886
2.5878
2.5886
2.5870
2.5878
2.5870
2.5870
2.5886
2.5910
2.5886
2.5886
2.5878
2.5902
2.5878
2.5862
2.5886
2.5870
2.5878
2.5870
2.5878
2.5862
2.5870
2.5870
2.5886
2.5870
2.5878
2.5862
2.5894
2.5886
2.5870
2.5870
2.5886
2.5894
2.5886
2.5878
2.5878
2.5894
2.5878
2.5870
2.5894
2.5870
2.5902
2.5870
2.5878
2.5894
2.5886
2.5878
2.5878
2.5878
2.5870
2.5862
2.5854
2.5878
2.5862
2.5878
2.5878
2.5878
2.5854
2.5886
2.5870
2.5862
2.5870
2.5870
2.5854
2.5862
2.5846
2.5862
2.5862
2.5838
2.5862
2.5854
2.5822
2.5846
2.5846
2.5822
2.5862
2.5838
2.5830
2.5830
2.5838
2.5822
2.5814
2.5838
2.5822
2.5822
2.5814
2.5805
2.5797
2.5797
2.5789
2.5789
2.5789
2.5781
2.5797
2.5773
2.5781
2.5781
2.5757
2.5765
2.5757
2.5765
2.5773
2.5765
2.5741
2.5757
2.5765
2.5757
2.5765
2.5749
2.5741
2.5733
2.5757
2.5749
2.5709
2.5717
2.5725
2.5725
2.5741
2.5733
2.5725
2.5701
2.5709
2.5701
2.5693
2.5693
2.5709
2.5693
2.5701
2.5669
2.5677
2.5685
2.5677
2.5669
2.5660
2.5669
2.5693
2.5701
2.5669
2.5660
2.5652
2.5660
2.5685
2.5669
2.5628
2.5652
2.5652
2.5669
2.5677
2.5652
2.5644
2.5660
2.5669
2.5669
2.5660
2.5660
2.5669
2.5644
2.5644
2.5660
2.5644
2.5660
2.5660
2.5636
2.5636
2.5652
2.5652
2.5677
2.5660
2.5652
2.5636
2.5636
2.5652
2.5652
2.5652
2.5652
2.5644
2.5652
2.5669
2.5652
2.5652
2.5636
2.5636
2.5644
2.5628
2.5652
2.5652
2.5652
2.5652
2.5652
2.5644
2.5636
2.5636
2.5636
2.5636
2.5644
2.5628
2.5660
2.5636
2.5628
2.5644
2.5652
2.5644
2.5636
2.5620
2.5612
2.5636
2.5620
2.5628
2.5620
2.5612
2.5604
2.5620
2.5620
2.5612
2.5604
2.5612
2.5604
2.5604
2.5588
2.5612
2.5596
2.5596
2.5604
2.5620
2.5596
2.5588
2.5588
2.5596
2.5580
2.5588
2.5588
2.5596
2.5580
2.5564
2.5556
2.5564
2.5588
2.5556
2.5556
2.5532
2.5572
2.5572
2.5556
2.5548
2.5564
2.5540
2.5556
2.5540
2.5532
2.5540
2.5540
2.5532
2.5499
2.5515
2.5499
2.5523
2.5523
2.5499
2.5491
2.5491
2.5491
2.5491
2.5499
2.5475
2.5475
2.5483
2.5475
2.5459
2.5499
2.5475
2.5451
2.5459
2.5451
2.5475
2.5419
2.5443
2.5443
2.5419
2.5419
2.5419
2.5419
2.5411
2.5419
2.5419
2.5403
2.5411
2.5411
2.5378
2.5395
2.5370
2.5370
2.5354
2.5378
2.5370
2.5362
2.5378
2.5378
2.5354
2.5378
2.5338
2.5346
2.5354
2.5338
2.5330
2.5322
2.5330
2.5346
2.5322
2.5298
2.5298
2.5298
2.5314
2.5322
2.5282
2.5282
2.5266
2.5306
2.5274
2.5282
2.5274
2.5274
2.5282
2.5225
2.5274
2.5242
2.5250
2.5225
2.5233
2.5233
2.5233
2.5217
2.5201
2.5242
2.5193
2.5209
2.5217
2.5209
2.5177
2.5201
2.5225
2.5233
2.5177
2.5169
2.5169
2.5193
2.5177
2.5161
2.5177
2.5161
2.5145
2.5169
2.5137
2.5145
2.5145
2.5121
2.5145
2.5105
2.5113
2.5121
2.5137
2.5113
2.5088
2.5113
2.5096
2.5096
2.5080
2.5105
2.5096
2.5096
2.5080
2.5072
2.5072
2.5072
2.5056
2.5064
2.5064
2.5056
2.5064
2.5032
2.5048
2.5032
2.5032
2.5040
2.5016
2.5032
2.5024
2.5008
2.5016
2.5000
2.5000
2.5016
2.5000
2.5000
2.5008
2.5000
2.4976
2.5008
2.4984
2.4992
2.4968
2.4935
2.4968
2.4960
2.4984
2.4960
2.4960
2.4943
2.4960
2.4951
2.4943
2.4943
2.4927
2.4935
2.4935
2.4943
2.4911
2.4919
2.4911
2.4903
2.4911
2.4911
2.4895
2.4903
2.4895
2.4911
2.4887
2.4879
2.4887
2.4879
2.4887
2.4871
2.4871
2.4879
2.4863
2.4855
2.4855
2.4863
2.4831
2.4855
2.4831
2.4855
2.4831
2.4847
2.4839
2.4831
2.4790
2.4815
2.4815
2.4798
2.4823
2.4831
2.4823
2.4815
2.4815
2.4774
2.4798
2.4798
2.4782
2.4798
2.4782
2.4782
2.4782
2.4782
2.4758
2.4766
2.4782
2.4766
2.4766
2.4742
2.4734
2.4742
2.4734
2.4734
2.4750
2.4734
2.4742
2.4734
2.4742
2.4734
2.4710
2.4734
2.4726
2.4702
2.4710
2.4734
2.4718
2.4718
2.4710
2.4694
2.4686
2.4702
2.4694
2.4702
2.4678
2.4694
2.4694
2.4694
2.4678
2.4686
2.4661
2.4678
2.4669
2.4645
2.4678
2.4637
2.4637
2.4645
2.4637
2.4645
2.4645
2.4645
2.4645
2.4629
2.4629
2.4637
2.4613
2.4613
2.4605
2.4637
2.4629
2.4621
2.4629
2.4613
2.4621
2.4581
2.4605
2.4589
2.4605
2.4581
2.4597
2.4589
2.4597
2.4581
2.4565
2.4581
2.4573
2.4589
2.4573
2.4597
2.4557
2.4573
2.4573
2.4541
2.4565
2.4557
2.4581
2.4541
2.4557
2.4541
2.4524
2.4549
2.4557
2.4549
2.4524
2.4541
2.4516
2.4533
2.4524
2.4524
2.4516
2.4516
2.4524
2.4508
2.4508
2.4500
2.4500
2.4492
2.4484
2.4476
2.4492
2.4492
2.4476
2.4484
2.4476
2.4468
2.4476
2.4452
2.4476
2.4476
2.4460
2.4476
2.4444
2.4444
2.4444
2.4444
2.4428
2.4452
2.4412
2.4452
2.4412
2.4428
2.4428
2.4404
2.4420
2.4379
2.4412
2.4412
2.4404
2.4363
2.4371
2.4371
2.4404
2.4371
2.4379
2.4355
2.4388
2.4355
2.4371
2.4331
2.4331
2.4379
2.4339
2.4355
2.4315
2.4339
2.4323
2.4323
2.4299
2.4283
2.4283
2.4299
2.4291
2.4307
2.4299
2.4291
2.4283
2.4283
2.4283
2.4267
2.4267
2.4251
2.4251
2.4259
2.4234
2.4259
2.4242
2.4242
2.4218
2.4234
2.4234
2.4226
2.4218
2.4242
2.4242
2.4218
2.4202
2.4218
2.4202
2.4194
2.4194
2.4194
2.4194
2.4194
2.4178
2.4186
2.4170
2.4162
2.4154
2.4154
2.4146
2.4162
2.4146
2.4154
2.4146
2.4138
2.4138
2.4122
2.4122
2.4138
2.4097
2.4106
2.4097
2.4122
2.4106
2.4089
2.4081
2.4114
2.4097
2.4081
2.4073
2.4097
2.4065
2.4073
2.4073
2.4081
2.4073
2.4097
2.4081
2.4065
2.4097
2.4097
2.4073
2.4106
2.4114
2.4106
2.4097
2.4138
2.4130
2.4138
2.4170
2.4186
2.4202
2.4202
2.4210
2.4234
2.4234
2.4291
2.4291
2.4339
2.4347
2.4379
2.4396
2.4452
2.4476
2.4500
2.4541
2.4573
2.4589
2.4645
2.4669
2.4694
2.4726
2.4750
2.4790
2.4815
2.4863
2.4887
2.4911
2.4943
2.5016
2.5032
2.5048
2.5096
2.5096
2.5137
2.5153
2.5137
2.5201
2.5250
2.5282
2.5330
2.5354
2.5387
2.5419
2.5419
2.5443
2.5459
2.5475
2.5499
2.5515
2.5548
2.5564
2.5596
2.5604
2.5604
2.5652
2.5660
2.5669
2.5693
2.5701
2.5693
2.5741
2.5749
2.5773
2.5773
2.5781
2.5822
2.5814
2.5846
2.5805
2.5830
2.5838
2.5862
2.5846
2.5870
2.5862
2.5902
2.5878
2.5894
2.5894
2.5910
2.5902
2.5918
2.5926
2.5934
2.5918
2.5926
2.5926
2.5959
2.5934
2.5967
2.5926
2.5942
2.5959
2.5959
2.5950
2.5983
2.5959
2.5950
2.5926
2.5959
2.5959
2.5983
2.5967
2.5983
2.5975
2.5950
2.5967
2.5975
2.5967
2.5967
2.5959
2.5950
2.5967
2.5959
2.5959
2.5950
2.5934
2.5934
2.5934
2.5959
2.5910
2.5934
2.5950
2.5950
2.5942
2.5942
2.5942
2.5942
2.5942
2.5934
2.5910
2.5918
2.5910
2.5910
2.5918
2.5910
2.5894
2.5886
2.5918
2.5910
2.5910
2.5902
2.5878
2.5894
2.5862
2.5894
2.5894
2.5894
2.5878
2.5894
2.5854
2.5886
2.5870
2.5878
2.5870
2.5862
2.5846
2.5870
2.5854
2.5870
2.5862
2.5846
2.5862
2.5862
2.5854
2.5862
2.5838
2.5854
2.5870
2.5854
2.5862
2.5846
2.5838
2.5838
2.5838
2.5830
2.5830
2.5822
2.5830
2.5838
2.5830
2.5830
2.5814
2.5830
2.5822
2.5822
2.5814
2.5822
2.5822
2.5838
2.5830
2.5846
2.5822
2.5822
2.5830
2.5830
2.5830
2.5822
2.5797
2.5814
2.5822
2.5830
2.5822
2.5838
2.5822
2.5838
2.5830
2.5830
2.5797
2.5781
2.5797
2.5830
2.5797
2.5830
2.5805
2.5830
2.5814
2.5838
2.5830
2.5822
2.5822
2.5822
2.5822
2.5822
2.5805
2.5797
2.5814
2.5797
2.5814
2.5830
2.5838
2.5805
2.5797
2.5822
2.5789
2.5814
2.5814
2.5773
2.5822
2.5797
2.5797
2.5797
2.5789
2.5781
2.5789
2.5781
2.5781
2.5781
2.5765
2.5773
2.5765
2.5749
2.5757
2.5765
2.5757
2.5749
2.5757
2.5757
2.5749
2.5749
2.5733
2.5733
2.5725
2.5725
2.5741
2.5717
2.5725
2.5717
2.5709
2.5717
2.5717
2.5709
2.5709
2.5685
2.5693
2.5693
2.5701
2.5669
2.5709
2.5669
2.5693
2.5677
2.5660
2.5660
2.5652
2.5669
2.5644
2.5677
2.5636
2.5644
2.5652
2.5660
2.5669
2.5660
2.5636
2.5636
2.5644
2.5652
2.5652
2.5628
2.5636
2.5644
2.5636
2.5628
2.5620
2.5636
2.5644
2.5644
2.5620
2.5628
2.5628
2.5620
2.5620
2.5636
2.5612
2.5620
2.5620
2.5604
2.5636
2.5628
2.5612
2.5588
2.5612
2.5620
2.5636
2.5620
2.5604
2.5620
2.5620
2.5620
2.5612
2.5628
2.5612
2.5636
2.5628
2.5636
2.5612
2.5604
2.5628
2.5596
2.5612
2.5620
2.5604
2.5636
2.5588
2.5604
2.5604
2.5620
2.5628
2.5596
2.5612
2.5604
2.5612
2.5604
2.5620
2.5580
2.5628
2.5604
2.5612
2.5604
2.5604
2.5604
2.5596
2.5596
2.5612
2.5604
2.5604
2.5596
2.5596
2.5612
2.5580
2.5596
2.5628
2.5612
2.5572
2.5604
2.5572
2.5588
2.5588
2.5628
2.5604
2.5572
2.5596
2.5612
2.5588
2.5588
2.5580
2.5564
2.5572
2.5580
2.5580
2.5580
2.5564
2.5596
2.5572
2.5556
2.5564
2.5548
2.5548
2.5540
2.5556
2.5556
2.5556
2.5556
2.5540
2.5540
2.5556
2.5532
2.5548
2.5548
2.5548
2.5532
2.5532
2.5515
2.5532
2.5515
2.5499
2.5507
2.5540
2.5507
2.5491
2.5491
2.5507
2.5491
2.5499
2.5507
2.5475
2.5491
2.5499
2.5467
2.5451
2.5475
2.5475
2.5459
2.5459
2.5475
2.5443
2.5435
2.5443
2.5467
2.5443
2.5443
2.5451
2.5435
2.5451
2.5403
2.5427
2.5419
2.5411
2.5411
2.5395
2.5411
2.5395
2.5395
2.5378
2.5403
2.5378
2.5387
2.5370
2.5362
2.5370
2.5362
2.5370
2.5362
2.5346
2.5346
2.5322
2.5338
2.5346
2.5322
2.5338
2.5322
2.5298
2.5330
2.5298
2.5314
2.5290
2.5314
2.5298
2.5306
2.5274
2.5282
2.5274
2.5266
2.5250
2.5282
2.5266
2.5258
2.5266
2.5258
2.5250
2.5225
2.5225
2.5258
2.5242
2.5225
2.5209
2.5201
2.5209
2.5217
2.5217
2.5225
2.5201
2.5193
2.5201
2.5177
2.5185
2.5193
2.5185
2.5185
2.5177
2.5161
2.5177
2.5161
2.5161
2.5161
2.5153
2.5169
2.5161
2.5145
2.5137
2.5129
2.5129
2.5121
2.5121
2.5137
2.5096
2.5096
2.5121
2.5105
2.5105
2.5096
2.5080
2.5088
2.5096
2.5096
2.5064
2.5064
2.5056
2.5072
2.5056
2.5048
2.5032
2.5032
2.5032
2.5048
2.5032
2.5024
2.5008
2.5032
2.5032
2.5016
2.5024
2.5016
2.5032
2.4992
2.4992
2.4984
2.5000
2.4984
2.4992
2.4992
2.4968
2.4968
2.4984
2.4976
2.4968
2.4951
2.4960
2.4951
2.4951
2.4951
2.4960
2.4935
2.4943
2.4943
2.4919
2.4927
2.4903
2.4919
2.4903
2.4903
2.4903
2.4903
2.4911
2.4887
2.4887
2.4879
2.4879
2.4903
2.4887
2.4847
2.4871
2.4855
2.4871
2.4863
2.4847
2.4855
2.4863
2.4847
2.4847
2.4855
2.4847
2.4839
2.4831
2.4823
2.4839
2.4831
2.4823
2.4823
2.4831
2.4815
2.4823
2.4823
2.4823
2.4790
2.4798
2.4823
2.4806
2.4806
2.4798
2.4798
2.4782
2.4790
2.4790
2.4806
2.4774
2.4750
2.4798
2.4758
2.4758
2.4750
2.4758
2.4758
2.4750
2.4758
2.4734
2.4742
2.4742
2.4734
2.4742
2.4726
2.4734
2.4734
2.4718
2.4718
2.4734
2.4726
2.4702
2.4694
2.4694
2.4702
2.4702
2.4678
2.4702
2.4702
2.4694
2.4694
2.4678
2.4678
2.4661
2.4694
2.4661
2.4645
2.4669
2.4661
2.4661
2.4661
2.4637
2.4661
2.4637
2.4661
2.4645
2.4637
2.4629
2.4637
2.4637
2.4621
2.4605
2.4613
2.4621
2.4605
2.4605
2.4613
2.4613
2.4597
2.4605
2.4589
2.4605
2.4589
2.4589
2.4573
2.4565
2.4573
2.4573
2.4557
2.4565
2.4565
2.4557
2.4541
2.4573
2.4565
2.4573
2.4565
2.4549
2.4557
2.4557
2.4533
2.4524
2.4541
2.4533
2.4524
2.4524
2.4500
2.4508
2.4516
2.4524
2.4533
2.4500
2.4484
2.4484
2.4492
2.4492
2.4484
2.4500
2.4476
2.4500
2.4484
2.4484
2.4460
2.4468
2.4476
2.4444
2.4484
2.4468
2.4484
2.4460
2.4444
2.4468
2.4428
2.4452
2.4452
2.4428
2.4428
2.4428
2.4436
2.4436
2.4412
2.4412
2.4412
2.4404
2.4420
2.4388
2.4404
2.4379
2.4396
2.4388
2.4388
2.4379
2.4379
2.4404
2.4363
2.4379
2.4347
2.4339
2.4347
2.4355
2.4355
2.4347
2.4347
2.4323
2.4339
2.4323
2.4323
2.4339
2.4315
2.4307
2.4299
2.4307
2.4291
2.4299
2.4315
2.4283
2.4283
2.4275
2.4291
2.4251
2.4259
2.4251
2.4267
2.4234
2.4283
2.4234
2.4242
2.4242
2.4251
2.4210
2.4242
2.4218
2.4226
2.4218
2.4226
2.4202
2.4210
2.4218
2.4186
2.4202
2.4218
2.4218
2.4194
2.4186
2.4194
2.4210
2.4186
2.4202
2.4194
2.4178
2.4178
2.4210
2.4210
2.4210
2.4210
2.4218
2.4234
2.4251
2.4251
2.4242
2.4267
2.4275
2.4299
2.4299
2.4307
2.4347
2.4363
2.4388
2.4404
2.4428
2.4452
2.4452
2.4500
2.4516
2.4533
2.4581
2.4605
2.4621
2.4645
2.4694
2.4718
2.4750
2.4774
2.4806
2.4831
2.4879
2.4911
2.4935
2.4960
2.4984
2.5016
2.5064
2.5072
2.5096
2.5137
2.5145
2.5145
2.5201
2.5209
2.5266
2.5306
2.5338
2.5370
2.5395
2.5411
2.5435
2.5467
2.5483
2.5540
2.5556
2.5580
2.5596
2.5612
2.5644
2.5669
2.5685
2.5709
2.5717
2.5733
2.5757
2.5765
2.5781
2.5797
2.5789
2.5822
2.5838
2.5838
2.5838
2.5870
2.5878
2.5862
2.5854
2.5870
2.5910
2.5910
2.5894
2.5910
2.5926
2.5942
2.5950
2.5959
2.5967
2.5975
2.5967
2.5983
2.5967
2.5983
2.5991
2.6007
2.6007
2.6015
2.6007
2.6031
2.6039
2.6031
2.6039
2.6047
2.6055
2.6039
2.6031
2.6039
2.5999
2.6023
2.6023
2.6023
2.6023
2.6031
2.6031
2.6015
2.6007
2.6023
2.6031
2.6031
2.6015
2.6023
2.6031
2.6039
2.6007
2.6015
2.5999
2.6015
2.6023
2.6015
2.5983
2.5999
2.6007
2.5999
2.6015
2.6015
2.5999
2.5999
2.6007
2.5999
2.5999
2.5983
2.5975
2.5991
2.5991
2.5959
2.5967
2.5983
2.5983
2.5967
2.5959
2.5967
2.5959
2.5991
2.5967
2.5991
2.5967
2.5975
2.5959
2.5975
2.5975
2.5975
2.5959
2.5950
2.5959
2.5950
2.5959
2.5950
2.5942
2.5942
2.5959
2.5934
2.5959
2.5942
2.5926
2.5934
2.5942
2.5926
2.5942
2.5934
2.5942
2.5910
2.5950
2.5959
2.5918
2.5934
2.5934
2.5942
2.5950
2.5926
2.5926
2.5934
2.5942
2.5942
2.5918
2.5926
2.5934
2.5918
2.5926
2.5934
2.5934
2.5926
2.5918
2.5926
2.5950
2.5926
2.5918
2.5926
2.5910
2.5902
2.5918
2.5934
2.5918
2.5910
2.5918
2.5902
2.5934
2.5926
2.5926
2.5926
2.5918
2.5926
2.5942
2.5934
2.5918
2.5918
2.5934
2.5934
2.5926
2.5934
2.5926
2.5926
2.5934
2.5926
2.5918
2.5926
2.5942
2.5942
2.5918
2.5934
2.5910
2.5934
2.5934
2.5910
2.5918
2.5942
2.5910
2.5918
2.5934
2.5910
2.5926
2.5926
2.5910
2.5910
2.5926
2.5926
2.5926
2.5934
2.5910
2.5942
2.5910
2.5902
2.5886
2.5902
2.5902
2.5894
2.5886
2.5886
2.5886
2.5878
2.5878
2.5854
2.5870
2.5870
2.5870
2.5886
2.5870
2.5862
2.5838
2.5854
2.5870
2.5854
2.5838
2.5838
2.5838
2.5830
2.5830
2.5805
2.5838
2.5822
2.5814
2.5805
2.5814
2.5805
2.5805
2.5797
2.5773
2.5765
2.5773
2.5773
2.5765
2.5773
2.5773
2.5765
2.5757
2.5749
2.5725
2.5765
2.5749
2.5741
2.5741
2.5749
2.5725
2.5741
2.5749
2.5733
2.5717
2.5725
2.5717
2.5725
2.5701
2.5709
2.5701
2.5717
2.5701
2.5709
2.5709
2.5693
2.5709
2.5709
2.5693
2.5733
2.5693
2.5693
2.5685
2.5677
2.5685
2.5669
2.5685
2.5701
2.5677
2.5669
2.5685
2.5685
2.5685
2.5677
2.5669
2.5693
2.5669
2.5693
2.5660
2.5660
2.5685
2.5652
2.5693
2.5669
2.5677
2.5669
2.5660
2.5677
2.5677
2.5677
2.5701
2.5693
2.5693
2.5693
2.5685
2.5701
2.5693
2.5693
2.5677
2.5660
2.5677
2.5685
2.5677
2.5669
2.5669
2.5660
2.5669
2.5685
2.5677
2.5669
2.5685
2.5701
2.5677
2.5693
2.5669
2.5685
2.5660
2.5660
2.5677
2.5685
2.5669
2.5660
2.5677
2.5669
2.5644
2.5644
2.5636
2.5652
2.5660
2.5660
2.5669
2.5660
2.5660
2.5652
2.5660
2.5652
2.5636
2.5628
2.5636
2.5644
2.5628
2.5636
2.5628
2.5636
2.5620
2.5620
2.5636
2.5596
2.5612
2.5604
2.5612
2.5612
2.5612
2.5588
2.5580
2.5604
2.5596
2.5548
2.5572
2.5572
2.5572
2.5564
2.5580
2.5556
2.5556
2.5548
2.5540
2.5556
2.5532
2.5540
2.5548
2.5515
2.5548
2.5532
2.5499
2.5532
2.5523
2.5532
2.5540
2.5532
2.5499
2.5507
2.5515
2.5491
2.5475
2.5483
2.5475
2.5483
2.5475
2.5499
2.5459
2.5483
2.5467
2.5475
2.5467
2.5467
2.5451
2.5459
2.5451
2.5459
2.5459
2.5419
2.5411
2.5419
2.5403
2.5427
2.5403
2.5403
2.5411
2.5378
2.5395
2.5411
2.5403
2.5395
2.5395
2.5378
2.5362
2.5370
2.5354
2.5346
2.5354
2.5346
2.5346
2.5354
2.5314
2.5346
2.5338
2.5306
2.5338
2.5322
2.5314
2.5322
2.5298
2.5290
2.5290
2.5290
2.5282
2.5274
2.5282
2.5282
2.5274
2.5274
2.5266
2.5290
2.5266
2.5266
2.5258
2.5217
2.5250
2.5233
2.5225
2.5233
2.5209
2.5225
2.5225
2.5209
2.5209
2.5217
2.5209
2.5209
2.5185
2.5201
2.5193
2.5177
2.5177
2.5169
2.5201
2.5161
2.5145
2.5161
2.5161
2.5137
2.5137
2.5121
2.5129
2.5113
2.5105
2.5096
2.5105
2.5121
2.5121
2.5113
2.5105
2.5105
2.5113
2.5096
2.5096
2.5072
2.5088
2.5064
2.5064
2.5064
2.5064
2.5064
2.5064
2.5072
2.5064
2.5072
2.5048
2.5064
2.5056
2.5032
2.5040
2.5008
2.5008
2.5000
2.5016
2.5000
2.4984
2.4992
2.5008
2.4992
2.4976
2.4992
2.4992
2.4984
2.5000
2.4960
2.4968
2.4968
2.4968
2.4968
2.4943
2.4927
2.4943
2.4951
2.4943
2.4927
2.4927
2.4919
2.4935
2.4927
2.4895
2.4887
2.4895
2.4927
2.4911
2.4919
2.4895
2.4903
2.4911
2.4879
2.4887
2.4895
2.4879
2.4863
2.4855
2.4863
2.4847
2.4863
2.4871
2.4839
2.4839
2.4855
2.4855
2.4855
2.4839
2.4847
2.4855
2.4831
2.4823
2.4831
2.4823
2.4806
2.4831
2.4806
2.4815
2.4815
2.4815
2.4806
2.4798
2.4806
2.4798
2.4806
2.4798
2.4782
2.4790
2.4758
2.4774
2.4758
2.4766
2.4750
2.4750
2.4742
2.4734
2.4718
2.4734
2.4742
2.4726
2.4694
2.4710
2.4734
2.4726
2.4726
2.4718
2.4726
2.4726
2.4694
2.4710
2.4718
2.4702
2.4669
2.4678
2.4686
2.4686
2.4678
2.4678
2.4686
2.4678
2.4678
2.4669
2.4669
2.4661
2.4661
2.4661
2.4669
2.4669
2.4637
2.4629
2.4637
2.4637
2.4621
2.4629
2.4613
2.4605
2.4605
2.4597
2.4605
2.4589
2.4589
2.4597
2.4613
2.4597
2.4605
2.4573
2.4589
2.4597
2.4573
2.4549
2.4573
2.4573
2.4573
2.4557
2.4541
2.4557
2.4557
2.4541
2.4557
2.4541
2.4541
2.4549
2.4549
2.4549
2.4541
2.4549
2.4492
2.4541
2.4524
2.4508
2.4500
2.4500
2.4516
2.4500
2.4516
2.4476
2.4508
2.4492
2.4468
2.4484
2.4484
2.4492
2.4476
2.4476
2.4436
2.4460
2.4452
2.4428
2.4460
2.4444
2.4436
2.4444
2.4436
2.4436
2.4412
2.4444
2.4420
2.4436
2.4412
2.4412
2.4428
2.4404
2.4388
2.4379
2.4379
2.4396
2.4363
2.4371
2.4379
2.4355
2.4388
2.4339
2.4379
2.4371
2.4388
2.4371
2.4347
2.4371
2.4331
2.4323
2.4355
2.4347
2.4315
2.4291
2.4323
2.4291
2.4331
2.4299
2.4323
2.4275
2.4299
2.4307
2.4299
2.4259
2.4275
2.4275
2.4259
2.4234
2.4242
2.4218
2.4234
2.4234
2.4226
2.4259
2.4234
2.4234
2.4234
2.4226
2.4218
2.4210
2.4194
2.4202
2.4194
2.4226
2.4186
2.4194
2.4186
2.4194
2.4178
2.4178
2.4170
2.4186
2.4178
2.4154
2.4170
2.4138
2.4170
2.4154
2.4138
2.4138
2.4138
2.4122
2.4122
2.4122
2.4122
2.4106
2.4097
2.4106
2.4089
2.4081
2.4089
2.4081
2.4073
2.4081
2.4065
2.4065
2.4073
2.4097
2.4073
2.4073
2.4073
2.4057
2.4057
2.4033
2.4041
2.4049
2.4041
2.4033
2.4033
2.4033
2.4009
2.4017
2.3993
2.4025
2.4009
2.3977
2.4001
2.3985
2.3977
2.3985
2.3969
2.3985
2.3977
2.3977
2.3952
2.3960
2.3952
2.3969
2.3969
2.3944
2.3960
2.3969
2.3977
2.3985
2.4001
2.4001
2.4001
2.4001
2.4017
2.4041
2.4049
2.4049
2.4081
2.4089
2.4097
2.4138
2.4130
2.4178
2.4194
2.4218
2.4251
2.4283
2.4323
2.4331
2.4363
2.4420
2.4436
2.4452
2.4492
2.4508
2.4533
2.4597
2.4605
2.4645
2.4694
2.4726
2.4758
2.4782
2.4815
2.4871
2.4887
2.4919
2.4984
2.5016
2.5048
2.5080
2.5121
2.5153
2.5161
2.5185
2.5233
2.5266
2.5330
2.5330
2.5354
2.5370
2.5411
2.5419
2.5483
2.5499
2.5491
2.5548
2.5564
2.5588
2.5620
2.5628
2.5644
2.5669
2.5685
2.5701
2.5725
2.5733
2.5741
2.5773
2.5757
2.5789
2.5805
2.5822
2.5838
2.5838
2.5862
2.5846
2.5878
2.5886
2.5894
2.5870
2.5902
2.5910
2.5910
2.5918
2.5959
2.5926
2.5967
2.5967
2.5975
2.5975
2.5959
2.5983
2.5983
2.5975
2.5999
2.5983
2.5991
2.5991
2.5999
2.5983
2.6007
2.5999
2.6031
2.6007
2.6015
2.6015
2.6015
2.6023
2.6023
2.6039
2.5999
2.6015
2.6023
2.6031
2.6047
2.6047
2.6039
2.6055
2.6023
2.6039
2.6055
2.6023
2.6015
2.6047
2.6047
2.6039
2.6039
2.6031
2.6039
2.6023
2.6023
2.6047
2.6023
2.6039
2.6023
2.6039
2.6039
2.6031
2.6023
2.6015
2.6015
2.6007
2.6007
2.6015
2.6007
2.6007
2.5991
2.6007
2.6023
2.6015
2.6007
2.6007
2.6007
2.6007
2.5991
2.5975
2.6007
2.5999
2.5991
2.5983
2.5991
2.6007
2.5991
2.5999
2.5991
2.5983
2.5983
2.5991
2.5967
2.5983
2.5991
2.5999
2.5991
2.5967
2.5967
2.5975
2.5999
2.5967
2.5983
2.5967
2.5975
2.5975
2.5959
2.5959
2.5950
2.5950
2.5967
2.5959
2.5942
2.5959
2.5959
2.5983
2.5959
2.5975
2.5999
2.5983
2.5975
2.5959
2.5991
2.5983
2.5942
2.5975
2.5975
2.5975
2.5967
2.5983
2.5967
2.5975
2.5999
2.5991
2.5975
2.5983
2.5999
2.5959
2.5991
2.5967
2.5975
2.5999
2.5975
2.5983
2.5991
2.5983
2.5967
2.5950
2.5975
2.5967
2.5975
2.5967
2.5991
2.5983
2.5983
2.5975
2.5991
2.6007
2.5967
2.5999
2.5999
2.5991
2.5975
2.5975
2.6007
2.5991
2.5991
2.5959
2.5999
2.5983
2.5991
2.5967
2.5991
2.5967
2.5991
2.5975
2.5991
2.5967
2.5983
2.5975
2.5959
2.5967
2.5959
2.5975
2.5975
2.5975
2.5967
2.5950
2.5967
2.5975
2.5967
2.5942
2.5950
2.5918
2.5934
2.5950
2.5926
2.5934
2.5918
2.5926
2.5910
2.5902
2.5910
2.5910
2.5910
2.5910
2.5910
2.5910
2.5886
2.5910
2.5902
2.5894
2.5894
2.5886
2.5886
2.5886
2.5894
2.5854
2.5862
2.5878
2.5846
2.5838
2.5862
2.5846
2.5862
2.5846
2.5822
2.5838
2.5838
2.5854
2.5838
2.5838
2.5822
2.5838
2.5846
2.5814
2.5838
2.5838
2.5797
2.5797
2.5797
2.5797
2.5797
2.5781
2.5797
2.5789
2.5781
2.5789
2.5765
2.5789
2.5765
2.5757
2.5749
2.5765
2.5773
2.5749
2.5765
2.5749
2.5765
2.5757
2.5749
2.5725
2.5741
2.5725
2.5757
2.5733
2.5717
2.5733
2.5709
2.5733
2.5733
2.5717
2.5741
2.5717
2.5725
2.5725
2.5741
2.5733
2.5741
2.5733
2.5741
2.5749
2.5725
2.5749
2.5741
2.5725
2.5717
2.5733
2.5757
2.5733
2.5717
2.5709
2.5725
2.5717
2.5717
2.5709
2.5725
2.5693
2.5733
2.5709
2.5693
2.5685
2.5693
2.5693
2.5701
2.5709
2.5701
2.5717
2.5701
2.5709
2.5701
2.5717
2.5709
2.5717
2.5701
2.5685
2.5701
2.5677
2.5693
2.5693
2.5701
2.5693
2.5677
2.5685
2.5709
2.5685
2.5701
2.5677
2.5685
2.5685
2.5677
2.5669
2.5652
2.5677
2.5669
2.5652
2.5669
2.5677
2.5636
2.5636
2.5669
2.5644
2.5636
2.5644
2.5636
2.5644
2.5636
2.5636
2.5644
2.5620
2.5620
2.5604
2.5612
2.5596
2.5620
2.5620
2.5588
2.5588
2.5596
2.5604
2.5596
2.5580
2.5596
2.5588
2.5588
2.5580
2.5564
2.5580
2.5580
2.5564
2.5556
2.5540
2.5556
2.5580
2.5548
2.5540
2.5548
2.5540
2.5515
2.5515
2.5523
2.5523
2.5507
2.5515
2.5483
2.5507
2.5475
2.5491
2.5483
2.5467
2.5491
2.5475
2.5467
2.5459
2.5451
2.5475
2.5467
2.5451
2.5459
2.5435
2.5435
2.5443
2.5443
2.5435
2.5427
2.5411
2.5427
2.5411
2.5419
2.5395
2.5403
2.5403
2.5395
2.5387
2.5403
2.5387
2.5378
2.5387
2.5370
2.5370
2.5370
2.5346
2.5362
2.5346
2.5370
2.5338
2.5330
2.5346
2.5322
2.5322
2.5322
2.5322
2.5314
2.5306
2.5314
2.5298
2.5298
2.5282
2.5290
2.5282
2.5290
2.5250
2.5282
2.5258
2.5266
2.5266
2.5250
2.5258
2.5242
2.5250
2.5258
2.5233
2.5242
2.5242
2.5225
2.5217
2.5225
2.5217
2.5233
2.5193
2.5209
2.5209
2.5193
2.5217
2.5201
2.5185
2.5193
2.5201
2.5161
2.5193
2.5193
2.5177
2.5185
2.5169
2.5153
2.5161
2.5153
2.5153
2.5161
2.5137
2.5129
2.5121
2.5137
2.5121
2.5113
2.5129
2.5105
2.5096
2.5105
2.5113
2.5088
2.5096
2.5096
2.5096
2.5088
2.5072
2.5088
2.5088
2.5080
2.5064
2.5072
2.5072
2.5040
2.5040
2.5032
2.5048
2.5056
2.5040
2.5040
2.5016
2.5016
2.5016
2.5016
2.5024
2.5016
2.5016
2.5016
2.4992
2.4992
2.4984
2.5016
2.4984
2.4984
2.4951
2.4984
2.4968
2.4992
2.4960
2.4960
2.4943
2.4935
2.4943
2.4935
2.4951
2.4935
2.4927
2.4951
2.4919
2.4911
2.4927
2.4903
2.4911
2.4927
2.4903
2.4919
2.4911
2.4911
2.4911
2.4903
2.4895
2.4903
2.4935
2.4911
2.4911
2.4887
2.4879
2.4887
2.4863
2.4871
2.4879
2.4879
2.4855
2.4855
2.4871
2.4855
2.4847
2.4863
2.4847
2.4855
2.4847
2.4806
2.4839
2.4839
2.4831
2.4806
2.4831
2.4798
2.4815
2.4806
2.4806
2.4790
2.4823
2.4790
2.4790
2.4815
2.4815
2.4798
2.4806
2.4790
2.4798
2.4774
2.4782
2.4790
2.4766
2.4782
2.4766
2.4790
2.4782
2.4742
2.4766
2.4774
2.4766
2.4766
2.4758
2.4750
2.4750
2.4742
2.4766
2.4718
2.4718
2.4702
2.4718
2.4718
2.4694
2.4726
2.4702
2.4694
2.4702
2.4694
2.4718
2.4686
2.4686
2.4686
2.4669
2.4653
2.4678
2.4686
2.4678
2.4645
2.4694
2.4645
2.4653
2.4678
2.4653
2.4669
2.4661
2.4637
2.4645
2.4621
2.4613
2.4621
2.4597
2.4621
2.4605
2.4605
2.4605
2.4605
2.4613
2.4589
2.4573
2.4573
2.4581
2.4589
2.4573
2.4581
2.4557
2.4565
2.4581
2.4565
2.4557
2.4565
2.4573
2.4557
2.4565
2.4565
2.4549
2.4549
2.4557
2.4549
2.4557
2.4549
2.4533
2.4541
2.4524
2.4508
2.4508
2.4492
2.4476
2.4476
2.4492
2.4484
2.4468
2.4460
2.4492
2.4468
2.4460
2.4452
2.4452
2.4428
2.4436
2.4436
2.4420
2.4452
2.4420
2.4388
2.4444
2.4460
2.4396
2.4420
2.4412
2.4371
2.4404
2.4404
2.4404
2.4428
2.4363
2.4363
2.4379
2.4355
2.4388
2.4371
2.4379
2.4347
2.4355
2.4331
2.4347
2.4363
2.4355
2.4347
2.4323
2.4315
2.4363
2.4339
2.4347
2.4339
2.4315
2.4299
2.4299
2.4283
2.4315
2.4323
2.4291
2.4291
2.4307
2.4299
2.4291
2.4299
2.4275
2.4315
2.4283
2.4283
2.4283
2.4267
2.4275
2.4275
2.4251
2.4267
2.4267
2.4251
2.4275
2.4267
2.4259
2.4242
2.4267
2.4242
2.4267
2.4275
2.4267
2.4259
2.4267
2.4267
2.4267
2.4259
2.4275
2.4259
2.4234
2.4242
2.4251
2.4242
2.4242
2.4242
2.4218
2.4226
2.4218
2.4226
2.4242
2.4234
2.4226
2.4234
2.4234
2.4234
2.4218
2.4218
2.4210
2.4226
2.4202
2.4226
2.4210
2.4202
2.4210
2.4202
2.4202
2.4210
2.4186
2.4186
2.4178
2.4178
2.4194
2.4186
2.4178
2.4154
2.4162
2.4162
2.4162
2.4170
2.4170
2.4170
2.4186
2.4194
2.4178
2.4178
2.4178
2.4154
2.4162
2.4146
2.4162
2.4170
2.4170
2.4178
2.4170
2.4178
2.4186
2.4202
2.4218
2.4194
2.4218
2.4210
2.4226
2.4226
2.4251
2.4242
2.4259
2.4275
2.4299
2.4291
2.4323
2.4323
2.4363
2.4404
2.4420
2.4436
2.4468
2.4492
2.4516
2.4557
2.4581
2.4613
2.4637
2.4669
2.4702
2.4742
2.4774
2.4790
2.4847
2.4871
2.4895
2.4935
2.4976
2.4992
2.5040
2.5072
2.5105
2.5105
2.5145
2.5161
2.5185
2.5217
2.5282
2.5298
2.5338
2.5362
2.5387
2.5419
2.5443
2.5459
2.5499
2.5507
2.5523
2.5532
2.5572
2.5604
2.5620
2.5644
2.5644
2.5685
2.5685
2.5685
2.5717
2.5749
2.5733
2.5765
2.5765
2.5814
2.5822
2.5846
2.5862
2.5870
2.5862
2.5894
2.5894
2.5902
2.5902
2.5918
2.5918
2.5926
2.5942
2.5967
2.5950
2.5983
2.5950
2.5983
2.5983
2.5991
2.5991
2.6007
2.6007
2.6039
2.6023
2.6031
2.6071
2.6047
2.6031
2.6039
2.6063
2.6063
2.6071
2.6079
2.6063
2.6096
2.6071
2.6071
2.6096
2.6087
2.6071
2.6096
2.6096
2.6096
2.6096
2.6079
2.6096
2.6087
2.6087
2.6079
2.6087
2.6079
2.6079
2.6104
2.6071
2.6096
2.6079
2.6087
2.6087
2.6112
2.6087
2.6079
2.6087
2.6096
2.6079
2.6071
2.6087
2.6096
2.6087
2.6071
2.6087
2.6063
2.6087
2.6071
2.6096
2.6063
2.6079
2.6063
2.6087
2.6063
2.6063
2.6071
2.6087
2.6063
2.6071
2.6063
2.6047
2.6055
2.6055
2.6055
2.6031
2.6039
2.6055
2.6039
2.6047
2.6015
2.6039
2.6031
2.6023
2.6031
2.6023
2.6023
2.6063
2.6055
2.6047
2.6047
2.6015
2.6031
2.6031
2.6031
2.6031
2.6015
2.6055
2.6047
2.6023
2.6031
2.6031
2.6031
2.6031
2.6031
2.6007
2.6015
2.5999
2.6015
2.6007
2.6031
2.6023
2.6007
2.5999
2.6023
2.6023
2.6007
2.6015
2.6039
2.6007
2.6031
2.6015
2.6023
2.6023
2.6031
2.6031
2.6047
2.6039
2.6047
2.6015
2.6023
2.6031
2.6031
2.6031
2.6031
2.6023
2.6031
2.6039
2.5999
2.6031
2.6047
2.6031
2.6031
2.6039
2.6055
2.6039
2.6055
2.6039
2.6031
2.6039
2.6031
2.6063
2.6039
2.6031
2.6055
2.6023
2.6047
2.6055
2.6055
2.6055
2.6039
2.6055
2.6039
2.6023
2.6039
2.6023
2.6039
2.6015
2.6015
2.6031
2.6039
2.6007
2.6015
2.6023
2.5991
2.6007
2.6007
2.5991
2.5991
2.5999
2.5999
2.6007
2.5999
2.5999
2.6007
2.5983
2.5991
2.5983
2.5991
2.5983
2.5975
2.5967
2.5967
2.5975
2.5975
2.5975
2.5967
2.5942
2.5950
2.5950
2.5950
2.5942
2.5959
2.5942
2.5934
2.5934
2.5926
2.5934
2.5918
2.5926
2.5926
2.5934
2.5918
2.5910
2.5918
2.5926
2.5926
2.5918
2.5910
2.5894
2.5902
2.5902
2.5902
2.5886
2.5886
2.5886
2.5870
2.5878
2.5878
2.5862
2.5862
2.5862
2.5862
2.5854
2.5846
2.5862
2.5854
2.5830
2.5838
2.5854
2.5846
2.5830
2.5846
2.5814
2.5862
2.5838
2.5838
2.5846
2.5846
2.5838
2.5830
2.5830
2.5838
2.5830
2.5822
2.5814
2.5797
2.5814
2.5814
2.5822
2.5797
2.5805
2.5789
2.5789
2.5789
2.5797
2.5797
2.5797
2.5789
2.5773
2.5797
2.5781
2.5789
2.5781
2.5805
2.5773
2.5765
2.5781
2.5773
2.5765
2.5789
2.5765
2.5773
2.5765
2.5765
2.5773
2.5757
2.5773
2.5765
2.5757
2.5741
2.5741
2.5749
2.5757
2.5741
2.5749
2.5741
2.5749
2.5757
2.5733
2.5749
2.5749
2.5733
2.5741
2.5749
2.5733
2.5741
2.5749
2.5741
2.5765
2.5741
2.5733
2.5757
2.5725
2.5741
2.5733
2.5733
2.5741
2.5725
2.5733
2.5709
2.5717
2.5701
2.5725
2.5709
2.5701
2.5717
2.5693
2.5701
2.5685
2.5693
2.5701
2.5709
2.5725
2.5701
2.5693
2.5685
2.5677
2.5693
2.5677
2.5677
2.5693
2.5669
2.5660
2.5660
2.5685
2.5677
2.5652
2.5677
2.5652
2.5652
2.5652
2.5644
2.5660
2.5644
2.5636
2.5644
2.5660
2.5628
2.5636
2.5636
2.5620
2.5620
2.5620
2.5620
2.5612
2.5612
2.5580
2.5604
2.5596
2.5596
2.5604
2.5588
2.5580
2.5564
2.5572
2.5572
2.5564
2.5580
2.5572
2.5564
2.5556
2.5556
2.5540
2.5523
2.5548
2.5548
2.5515
2.5523
2.5532
2.5523
2.5523
2.5507
2.5507
2.5523
2.5515
2.5483
2.5491
2.5483
2.5467
2.5491
2.5467
2.5459
2.5459
2.5475
2.5443
2.5451
2.5459
2.5427
2.5443
2.5451
2.5419
2.5419
2.5419
2.5427
2.5411
2.5395
2.5395
2.5403
2.5411
2.5395
2.5387
2.5378
2.5378
2.5370
2.5362
2.5354
2.5354
2.5378
2.5338
2.5362
2.5330
2.5322
2.5346
2.5362
2.5322
2.5330
2.5330
2.5306
2.5322
2.5306
2.5314
2.5290
2.5282
2.5298
2.5290
2.5282
2.5266
2.5290
2.5258
2.5274
2.5258
2.5274
2.5266
2.5258
2.5258
2.5242
2.5250
2.5258
2.5250
2.5225
2.5242
2.5225
2.5242
2.5217
2.5233
2.5225
2.5233
2.5201
2.5201
2.5209
2.5209
2.5225
2.5201
2.5217
2.5225
2.5209
2.5193
2.5193
2.5217
2.5193
2.5169
2.5169
2.5193
2.5153
2.5193
2.5169
2.5153
2.5153
2.5153
2.5145
2.5169
2.5145
2.5145
2.5137
2.5129
2.5113
2.5113
2.5137
2.5113
2.5113
2.5096
2.5121
2.5088
2.5080
2.5105
2.5096
2.5088
2.5096
2.5096
2.5096
2.5072
2.5048
2.5072
2.5072
2.5064
2.5072
2.5048
2.5048
2.5056
2.5048
2.5064
2.5040
2.5048
2.5032
2.5032
2.5032
2.5008
2.5008
2.5024
2.5016
2.5000
2.5024
2.4992
2.4992
2.5016
2.5000
2.4984
2.5000
2.4984
2.4968
2.4976
2.4951
2.4968
2.4951
2.4943
2.4943
2.4943
2.4943
2.4935
2.4960
2.4935
2.4927
2.4927
2.4927
2.4935
2.4927
2.4919
2.4935
2.4919
2.4919
2.4935
2.4895
2.4903
2.4919
2.4895
2.4895
2.4895
2.4903
2.4895
2.4903
2.4895
2.4895
2.4871
2.4887
2.4871
2.4871
2.4847
2.4871
2.4855
2.4847
2.4847
2.4839
2.4831
2.4823
2.4823
2.4798
2.4823
2.4798
2.4815
2.4823
2.4831
2.4823
2.4815
2.4806
2.4790
2.4790
2.4790
2.4782
2.4790
2.4798
2.4806
2.4798
2.4790
2.4782
2.4766
2.4782
2.4782
2.4750
2.4774
2.4750
2.4750
2.4750
2.4734
2.4766
2.4718
2.4718
2.4726
2.4742
2.4734
2.4726
2.4726
2.4710
2.4718
2.4702
2.4702
2.4718
2.4702
2.4694
2.4718
2.4710
2.4669
2.4694
2.4678
2.4669
2.4678
2.4645
2.4661
2.4645
2.4653
2.4637
2.4669
2.4645
2.4637
2.4613
2.4645
2.4637
2.4629
2.4653
2.4629
2.4621
2.4637
2.4613
2.4621
2.4605
2.4581
2.4573
2.4597
2.4589
2.4589
2.4589
2.4597
2.4589
2.4565
2.4589
2.4581
2.4573
2.4581
2.4565
2.4589
2.4565
2.4581
2.4549
2.4557
2.4524
2.4549
2.4541
2.4541
2.4533
2.4533
2.4533
2.4541
2.4524
2.4524
2.4533
2.4508
2.4524
2.4508
2.4500
2.4484
2.4468
2.4484
2.4468
2.4492
2.4476
2.4468
2.4460
2.4460
2.4436
2.4420
2.4444
2.4436
2.4444
2.4412
2.4428
2.4428
2.4452
2.4428
2.4436
2.4436
2.4412
2.4420
2.4420
2.4412
2.4420
2.4404
2.4396
2.4412
2.4363
2.4388
2.4371
2.4396
2.4396
2.4363
2.4363
2.4363
2.4371
2.4347
2.4323
2.4347
2.4323
2.4299
2.4299
2.4299
2.4299
2.4315
2.4283
2.4283
2.4299
2.4275
2.4291
2.4267
2.4283
2.4275
2.4259
2.4251
2.4275
2.4251
2.4267
2.4267
2.4251
2.4251
2.4275
2.4251
2.4226
2.4226
2.4251
2.4210
2.4226
2.4202
2.4218
2.4210
2.4210
2.4186
2.4178
2.4202
2.4178
2.4202
2.4178
2.4170
2.4154
2.4162
2.4162
2.4162
2.4138
2.4154
2.4154
2.4154
2.4138
2.4122
2.4138
2.4122
2.4138
2.4106
2.4122
2.4106
2.4114
2.4097
2.4081
2.4097
2.4097
2.4081
2.4073
2.4065
2.4065
2.4057
2.4041
2.4057
2.4033
2.4041
2.4025
2.4025
2.4009
2.4001
2.4001
2.4009
2.3985
2.3977
2.3985
2.3985
2.3969
2.3977
2.3977
2.3977
2.3952
2.3952
2.3977
2.3969
2.3952
2.3985
2.3993
2.4001
2.4001
2.3993
2.3993
2.4009
2.4017
2.4009
2.4033
2.4041
2.4033
2.4065
2.4097
2.4106
2.4106
2.4122
2.4130
2.4162
2.4202
2.4210
2.4242
2.4275
2.4283
2.4339
2.4388
2.4396
2.4428
2.4444
2.4460
2.4516
2.4541
2.4581
2.4637
2.4661
2.4678
2.4726
2.4790
2.4815
2.4839
2.4871
2.4903
2.4943
2.4951
2.4992
2.5032
2.5064
2.5080
2.5129
2.5145
2.5169
2.5169
2.5233
2.5282
2.5314
2.5346
2.5362
2.5395
2.5411
2.5443
2.5459
2.5491
2.5499
2.5523
2.5556
2.5564
2.5588
2.5596
2.5620
2.5596
2.5652
2.5652
2.5685
2.5701
2.5717
2.5717
2.5741
2.5741
2.5765
2.5797
2.5797
2.5805
2.5814
2.5822
2.5814
2.5846
2.5822
2.5878
2.5870
2.5870
2.5878
2.5902
2.5918
2.5902
2.5918
2.5918
2.5934
2.5926
2.5926
2.5934
2.5934
2.5926
2.5959
2.5967
2.5934
2.5950
2.5942
2.5959
2.5950
2.5942
2.5967
2.5950
2.5950
2.5950
2.5959
2.5975
2.5967
2.5983
2.5975
2.5967
2.5983
2.5999
2.5959
2.5975
2.5967
2.5967
2.5967
2.5975
2.5975
2.5967
2.5959
2.5975
2.5975
2.5967
2.5975
2.5967
2.5959
2.5967
2.5959
2.5975
2.5959
2.5942
2.5942
2.5950
2.5942
2.5959
2.5934
2.5910
2.5918
2.5918
2.5926
2.5902
2.5910
2.5910
2.5918
2.5918
2.5902
2.5894
2.5926
2.5910
2.5910
2.5902
2.5902
2.5878
2.5894
2.5894
2.5894
2.5894
2.5870
2.5886
2.5886
2.5870
2.5878
2.5854
2.5886
2.5878
2.5870
2.5870
2.5886
2.5878
2.5878
2.5862
2.5854
2.5846
2.5846
2.5854
2.5838
2.5846
2.5846
2.5854
2.5846
2.5854
2.5854
2.5846
2.5862
2.5846
2.5838
2.5830
2.5838
2.5830
2.5822
2.5846
2.5830
2.5838
2.5830
2.5838
2.5846
2.5830
2.5822
2.5846
2.5846
2.5838
2.5846
2.5822
2.5838
2.5838
2.5822
2.5830
2.5822
2.5814
2.5822
2.5805
2.5797
2.5814
2.5814
2.5814
2.5838
2.5814
2.5822
2.5805
2.5838
2.5838
2.5814
2.5846
2.5830
2.5846
2.5822
2.5822
2.5838
2.5838
2.5838
2.5830
2.5846
2.5846
2.5846
2.5854
2.5830
2.5838
2.5838
2.5830
2.5846
2.5854
2.5838
2.5814
2.5814
2.5805
2.5838
2.5814
2.5814
2.5797
2.5805
2.5805
2.5814
2.5814
2.5789
2.5797
2.5789
2.5822
2.5805
2.5765
2.5797
2.5773
2.5789
2.5789
2.5773
2.5781
2.5789
2.5749
2.5773
2.5765
2.5741
2.5757
2.5741
2.5741
2.5757
2.5733
2.5741
2.5741
2.5725
2.5741
2.5717
2.5717
2.5725
2.5717
2.5709
2.5733
2.5725
2.5693
2.5717
2.5677
2.5693
2.5701
2.5685
2.5685
2.5693
2.5677
2.5660
2.5660
2.5644
2.5669
2.5644
2.5644
2.5644
2.5620
2.5628
2.5636
2.5636
2.5636
2.5636
2.5628
2.5628
2.5636
2.5620
2.5620
2.5612
2.5604
2.5596
2.5596
2.5572
2.5580
2.5572
2.5580
2.5588
2.5580
2.5556
2.5588
2.5580
2.5580
2.5580
2.5556
2.5572
2.5580
2.5556
2.5556
2.5564
2.5596
2.5556
2.5548
2.5556
2.5564
2.5564
2.5564
2.5564
2.5572
2.5556
2.5556
2.5564
2.5572
2.5556
2.5556
2.5556
2.5572
2.5548
2.5564
2.5540
2.5556
2.5548
2.5540
2.5540
2.5540
2.5548
2.5540
2.5556
2.5548
2.5548
2.5540
2.5532
2.5523
2.5532
2.5523
2.5532
2.5532
2.5515
2.5523
2.5532
2.5532
2.5515
2.5515
2.5540
2.5532
2.5515
2.5523
2.5523
2.5499
2.5499
2.5515
2.5515
2.5491
2.5515
2.5507
2.5491
2.5523
2.5515
2.5499
2.5499
2.5483
2.5451
2.5475
2.5483
2.5459
2.5475
2.5467
2.5491
2.5459
2.5491
2.5467
2.5475
2.5467
2.5475
2.5451
2.5467
2.5459
2.5459
2.5459
2.5443
2.5451
2.5443
2.5419
2.5435
2.5435
2.5443
2.5435
2.5435
2.5411
2.5427
2.5403
2.5395
2.5419
2.5403
2.5378
2.5403
2.5387
2.5362
2.5387
2.5387
2.5370
2.5354
2.5362
2.5362
2.5354
2.5362
2.5354
2.5338
2.5354
2.5322
2.5354
2.5354
2.5338
2.5330
2.5330
2.5322
2.5298
2.5306
2.5306
2.5314
2.5330
2.5290
2.5274
2.5274
2.5274
2.5298
2.5290
2.5282
2.5290
2.5250
2.5274
2.5258
2.5250
2.5242
2.5233
2.5242
2.5225
2.5201
2.5225
2.5225
2.5201
2.5217
2.5185
2.5177
2.5201
2.5185
2.5193
2.5185
2.5169
2.5193
2.5177
2.5201
2.5169
2.5161
2.5169
2.5161
2.5161
2.5129
2.5105
2.5121
2.5113
2.5113
2.5121
2.5121
2.5080
2.5088
2.5080
2.5105
2.5080
2.5080
2.5072
2.5088
2.5048
2.5056
2.5064
2.5040
2.5072
2.5032
2.5040
2.5040
2.5024
2.5000
2.5008
2.5016
2.5000
2.5000
2.4984
2.5016
2.4968
2.4992
2.4984
2.4968
2.4968
2.4984
2.4968
2.4976
2.4951
2.4951
2.4943
2.4943
2.4935
2.4943
2.4919
2.4903
2.4911
2.4919
2.4911
2.4895
2.4879
2.4871
2.4871
2.4863
2.4863
2.4871
2.4863
2.4863
2.4863
2.4863
2.4855
2.4855
2.4831
2.4839
2.4855
2.4823
2.4823
2.4839
2.4831
2.4823
2.4790
2.4815
2.4806
2.4806
2.4782
2.4798
2.4782
2.4798
2.4766
2.4758
2.4758
2.4734
2.4734
2.4758
2.4750
2.4734
2.4742
2.4726
2.4734
2.4734
2.4710
2.4718
2.4718
2.4694
2.4678
2.4702
2.4661
2.4669
2.4661
2.4686
2.4669
2.4669
2.4653
2.4669
2.4653
2.4653
2.4669
2.4645
2.4621
2.4621
2.4645
2.4613
2.4613
2.4613
2.4605
2.4613
2.4597
2.4597
2.4581
2.4581
2.4573
2.4565
2.4565
2.4557
2.4557
2.4541
2.4549
2.4541
2.4541
2.4524
2.4533
2.4524
2.4533
2.4541
2.4524
2.4541
2.4508
2.4516
2.4492
2.4508
2.4492
2.4492
2.4484
2.4492
2.4476
2.4476
2.4476
2.4484
2.4468
2.4468
2.4460
2.4468
2.4476
2.4452
2.4452
2.4444
2.4428
2.4428
2.4420
2.4404
2.4412
2.4404
2.4412
2.4404
2.4396
2.4379
2.4379
2.4388
2.4363
2.4363
2.4388
2.4363
2.4388
2.4388
2.4339
2.4379
2.4363
2.4339
2.4355
2.4323
2.4347
2.4331
2.4323
2.4323
2.4299
2.4339
2.4331
2.4307
2.4315
2.4299
2.4291
2.4275
2.4307
2.4283
2.4275
2.4259
2.4259
2.4251
2.4226
2.4234
2.4218
2.4242
2.4226
2.4226
2.4210
2.4234
2.4194
2.4226
2.4210
2.4202
2.4226
2.4202
2.4210
2.4202
2.4186
2.4186
2.4178
2.4186
2.4178
2.4178
2.4178
2.4138
2.4146
2.4154
2.4154
2.4138
2.4138
2.4146
2.4138
2.4146
2.4114
2.4130
2.4114
2.4130
2.4122
2.4114
2.4089
2.4097
2.4089
2.4089
2.4065
2.4081
2.4106
2.4081
2.4081
2.4073
2.4065
2.4057
2.4057
2.4041
2.4057
2.4057
2.4057
2.4057
2.4017
2.4025
2.4033
2.4025
2.4041
2.4017
2.4017
2.4001
2.4001
2.4025
2.3993
2.4017
2.3985
2.3969
2.3969
2.3944
2.3969
2.3952
2.3928
2.3960
2.3936
2.3936
2.3920
2.3944
2.3888
2.3912
2.3920
2.3904
2.3888
2.3896
2.3888
2.3896
2.3880
2.3880
2.3872
2.3872
2.3872
2.3880
2.3872
2.3872
2.3856
2.3856
2.3848
2.3832
2.3840
2.3815
2.3832
2.3832
2.3840
2.3832
2.3824
2.3815
2.3832
2.3807
2.3799
2.3807
2.3791
2.3807
2.3767
2.3759
2.3791
2.3767
2.3759
2.3735
2.3743
2.3759
2.3759
2.3743
2.3735
2.3735
2.3735
2.3735
2.3735
2.3711
2.3719
2.3687
2.3687
2.3695
2.3695
2.3695
2.3662
2.3670
2.3687
2.3662
2.3654
2.3662
2.3654
2.3654
2.3638
2.3630
2.3638
2.3630
2.3638
2.3598
2.3598
2.3622
2.3598
2.3598
2.3574
2.3574
2.3598
2.3558
2.3566
2.3550
2.3542
2.3533
2.3525
2.3533
2.3517
2.3533
2.3517
2.3517
2.3525
2.3517
2.3517
2.3517
2.3509
2.3501
2.3485
2.3493
2.3485
2.3485
2.3485
2.3485
2.3485
2.3469
2.3493
2.3477
2.3477
2.3477
2.3477
2.3469
2.3493
2.3493
2.3501
2.3477
2.3501
2.3485
2.3525
2.3533
2.3525
2.3558
2.3558
2.3598
2.3598
2.3630
2.3654
2.3679
2.3711
2.3735
2.3759
2.3791
2.3832
2.3856
2.3896
2.3944
2.3952
2.4017
2.4057
2.4073
2.4122
2.4194
2.4218
2.4259
2.4315
2.4363
2.4412
2.4452
2.4484
2.4549
2.4597
2.4629
2.4710
2.4726
2.4766
2.4823
2.4847
2.4895
2.4927
2.4968
2.5016
2.5040
2.5072
2.5129
2.5129
2.5153
2.5161
2.5209
2.5282
2.5314
2.5330
2.5387
2.5403
2.5427
2.5443
2.5475
2.5491
2.5515
2.5548
2.5572
2.5580
2.5596
2.5620
2.5628
2.5652
2.5677
2.5693
2.5709
2.5709
2.5733
2.5725
2.5749
2.5773
2.5765
2.5757
2.5781
2.5789
2.5789
2.5805
2.5797
2.5814
2.5838
2.5846
2.5822
2.5846
2.5862
2.5870
2.5886
2.5862
2.5862
2.5862
2.5878
2.5862
2.5878
2.5886
2.5894
2.5910
2.5902
2.5910
2.5902
2.5902
2.5902
2.5902
2.5894
2.5894
2.5894
2.5902
2.5894
2.5886
2.5886
2.5870
2.5886
2.5902
2.5854
2.5878
2.5862
2.5870
2.5862
2.5854
2.5878
2.5862
2.5878
2.5862
2.5862
2.5862
2.5862
2.5870
2.5862
2.5854
2.5862
2.5846
2.5838
2.5862
2.5862
2.5822
2.5838
2.5854
2.5838
2.5838
2.5814
2.5846
2.5822
2.5830
2.5822
2.5838
2.5805
2.5805
2.5822
2.5789
2.5805
2.5781
2.5789
2.5765
2.5781
2.5757
2.5781
2.5757
2.5773
2.5765
2.5733
2.5765
2.5741
2.5749
2.5741
2.5757
2.5749
2.5733
2.5741
2.5741
2.5757
2.5733
2.5709
2.5717
2.5709
2.5693
2.5709
2.5717
2.5709
2.5685
2.5701
2.5709
2.5709
2.5693
2.5685
2.5669
2.5669
2.5677
2.5644
2.5677
2.5677
2.5652
2.5669
2.5636
2.5652
2.5669
2.5652
2.5652
2.5677
2.5669
2.5644
2.5660
2.5652
2.5660
2.5660
2.5660
2.5652
2.5644
2.5669
2.5652
2.5652
2.5652
2.5669
2.5652
2.5644
2.5644
2.5644
2.5660
2.5644
2.5628
2.5652
2.5604
2.5636
2.5636
2.5612
2.5620
2.5628
2.5612
2.5620
2.5620
2.5612
2.5620
2.5628
2.5604
2.5612
2.5620
2.5612
2.5620
2.5620
2.5604
2.5620
2.5612
2.5628
2.5620
2.5604
2.5604
2.5596
2.5604
2.5588
2.5572
2.5588
2.5580
2.5580
2.5580
2.5564
2.5564
2.5580
2.5548
2.5556
2.5556
2.5556
2.5540
2.5532
2.5507
2.5523
2.5507
2.5532
2.5507
2.5499
2.5523
2.5483
2.5499
2.5499
2.5491
2.5507
2.5483
2.5475
2.5467
2.5467
2.5443
2.5467
2.5467
2.5451
2.5451
2.5443
2.5435
2.5435
2.5443
2.5459
2.5443
2.5427
2.5419
2.5419
2.5443
2.5427
2.5435
2.5411
2.5427
2.5435
2.5411
2.5395
2.5411
2.5395
2.5403
2.5395
2.5411
2.5403
2.5403
2.5378
2.5403
2.5387
2.5387
2.5378
2.5387
2.5378
2.5387
2.5370
2.5378
2.5378
2.5387
2.5387
2.5378
2.5387
2.5378
2.5387
2.5370
2.5395
2.5378
2.5370
2.5378
2.5395
2.5395
2.5387
2.5378
2.5395
2.5387
2.5395
2.5403
2.5387
2.5387
2.5387
2.5403
2.5403
2.5387
2.5387
2.5395
2.5411
2.5395
2.5387
2.5411
2.5411
2.5411
2.5411
2.5403
2.5403
2.5419
2.5411
2.5403
2.5419
2.5403
2.5411
2.5387
2.5411
2.5395
2.5378
2.5395
2.5395
2.5411
2.5395
2.5370
2.5403
2.5395
2.5387
2.5403
2.5387
2.5370
2.5362
2.5403
2.5395
2.5378
2.5378
2.5387
2.5387
2.5395
2.5395
2.5387
2.5395
2.5395
2.5387
2.5387
2.5387
2.5395
2.5387
2.5378
2.5378
2.5362
2.5362
2.5354
2.5362
2.5330
2.5346
2.5354
2.5338
2.5338
2.5306
2.5322
2.5338
2.5330
2.5330
2.5322
2.5314
2.5330
2.5274
2.5314
2.5298
2.5314
2.5274
2.5290
2.5298
2.5274
2.5274
2.5298
2.5290
2.5290
2.5282
2.5266
2.5258
2.5274
2.5250
2.5225
2.5258
2.5233
2.5258
2.5242
2.5242
2.5233
2.5225
2.5242
2.5225
2.5217
2.5225
2.5193
2.5201
2.5201
2.5209
2.5185
2.5185
2.5185
2.5177
2.5209
2.5169
2.5169
2.5153
2.5169
2.5153
2.5145
2.5137
2.5113
2.5113
2.5113
2.5096
2.5121
2.5096
2.5105
2.5096
2.5088
2.5080
2.5088
2.5105
2.5080
2.5088
2.5096
2.5088
2.5096
2.5088
2.5072
2.5072
2.5088
2.5080
2.5064
2.5064
2.5056
2.5072
2.5056
2.5048
2.5032
2.5032
2.5024
2.5016
2.5024
2.5008
2.5000
2.4984
2.5000
2.4984
2.4976
2.4992
2.4976
2.4992
2.4968
2.4943
2.4960
2.4951
2.4943
2.4935
2.4927
2.4919
2.4919
2.4919
2.4919
2.4887
2.4911
2.4903
2.4887
2.4903
2.4879
2.4879
2.4855
2.4863
2.4863
2.4847
2.4855
2.4863
2.4847
2.4847
2.4831
2.4831
2.4839
2.4823
2.4815
2.4815
2.4806
2.4798
2.4798
2.4798
2.4806
2.4758
2.4774
2.4766
2.4750
2.4734
2.4758
2.4742
2.4734
2.4718
2.4734
2.4726
2.4718
2.4718
2.4710
2.4718
2.4694
2.4694
2.4710
2.4694
2.4686
2.4653
2.4669
2.4661
2.4661
2.4678
2.4653
2.4653
2.4653
2.4629
2.4629
2.4637
2.4621
2.4629
2.4589
2.4605
2.4613
2.4613
2.4597
2.4589
2.4581
2.4581
2.4589
2.4573
2.4573
2.4581
2.4565
2.4549
2.4581
2.4524
2.4549
2.4557
2.4541
2.4516
2.4524
2.4524
2.4516
2.4516
2.4500
2.4508
2.4516
2.4508
2.4476
2.4492
2.4476
2.4476
2.4508
2.4476
2.4460
2.4468
2.4460
2.4476
2.4452
2.4468
2.4468
2.4468
2.4476
2.4460
2.4460
2.4428
2.4436
2.4452
2.4436
2.4420
2.4428
2.4404
2.4396
2.4396
2.4404
2.4396
2.4371
2.4363
2.4379
2.4355
2.4355
2.4363
2.4323
2.4363
2.4339
2.4331
2.4355
2.4331
2.4355
2.4315
2.4315
2.4315
2.4315
2.4299
2.4283
2.4291
2.4283
2.4299
2.4299
2.4291
2.4275
2.4259
2.4275
2.4259
2.4259
2.4259
2.4259
2.4251
2.4234
2.4259
2.4234
2.4242
2.4242
2.4234
2.4234
2.4242
2.4226
2.4226
2.4226
2.4242
2.4218
2.4210
2.4210
2.4210
2.4194
2.4162
2.4170
2.4162
2.4186
2.4170
2.4178
2.4154
2.4162
2.4178
2.4162
2.4138
2.4170
2.4154
2.4154
2.4130
2.4146
2.4138
2.4146
2.4130
2.4138
2.4130
2.4114
2.4114
2.4114
2.4114
2.4122
2.4106
2.4089
2.4097
2.4081
2.4097
2.4089
2.4089
2.4089
2.4065
2.4073
2.4065
2.4089
2.4073
2.4065
2.4073
2.4049
2.4065
2.4049
2.4057
2.4041
2.4049
2.4033
2.4041
2.4033
2.4049
2.4017
2.4041
2.4065
2.4025
2.4009
2.4025
2.4017
2.4017
2.4009
2.4001
2.4001
2.3985
2.4001
2.3993
2.3993
2.3993
2.3960
2.3993
2.3977
2.4001
2.3977
2.3969
2.3952
2.3969
2.3944
2.3944
2.3936
2.3952
2.3928
2.3944
2.3969
2.3928
2.3904
2.3928
2.3920
2.3928
2.3944
2.3920
2.3896
2.3888
2.3896
2.3888
2.3904
2.3896
2.3872
2.3896
2.3872
2.3872
2.3896
2.3872
2.3872
2.3872
2.3856
2.3872
2.3872
2.3848
2.3840
2.3856
2.3832
2.3832
2.3840
2.3832
2.3832
2.3840
2.3832
2.3848
2.3832
2.3832
2.3840
2.3848
2.3824
2.3848
2.3856
2.3856
2.3864
2.3872
2.3872
2.3904
2.3896
2.3904
2.3936
2.3944
2.3960
2.3977
2.4009
2.4025
2.4033
2.4065
2.4073
2.4146
2.4162
2.4178
2.4178
2.4234
2.4259
2.4299
2.4347
2.4363
2.4412
2.4444
2.4508
2.4516
2.4589
2.4597
2.4629
2.4694
2.4734
2.4758
2.4806
2.4863
2.4887
2.4935
2.4935
2.5008
2.5032
2.5056
2.5096
2.5137
2.5153
2.5137
2.5193
2.5250
2.5306
2.5338
2.5387
2.5411
2.5411
2.5435
2.5467
2.5499
2.5483
2.5540
2.5556
2.5588
2.5612
2.5628
2.5636
2.5644
2.5685
2.5709
2.5709
2.5717
2.5733
2.5757
2.5781
2.5789
2.5822
2.5822
2.5830
2.5814
2.5838
2.5862
2.5854
2.5870
2.5886
2.5878
2.5886
2.5894
2.5902
2.5918
2.5918
2.5918
2.5934
2.5942
2.5918
2.5934
2.5934
2.5942
2.5934
2.5942
2.5967
2.5967
2.5983
2.5959
2.5967
2.5975
2.5950
2.5975
2.5975
2.5975
2.5975
2.5983
2.5959
2.5967
2.5967
2.5983
2.5950
2.5975
2.5959
2.5967
2.5959
2.5950
2.5959
2.5967
2.5967
2.5967
2.5991
2.5950
2.5959
2.5950
2.5934
2.5959
2.5959
2.5942
2.5926
2.5950
2.5942
2.5934
2.5926
2.5926
2.5918
2.5942
2.5934
2.5918
2.5902
2.5918
2.5918
2.5902
2.5886
2.5902
2.5894
2.5902
2.5886
2.5886
2.5862
2.5870
2.5886
2.5854
2.5862
2.5862
2.5862
2.5886
2.5854
2.5846
2.5838
2.5854
2.5846
2.5854
2.5838
2.5846
2.5838
2.5822
2.5838
2.5814
2.5822
2.5822
2.5830
2.5805
2.5797
2.5805
2.5822
2.5797
2.5805
2.5797
2.5797
2.5789
2.5781
2.5789
2.5797
2.5789
2.5805
2.5781
2.5781
2.5773
2.5773
2.5789
2.5781
2.5757
2.5773
2.5765
2.5741
2.5773
2.5749
2.5757
2.5749
2.5741
2.5781
2.5757
2.5749
2.5765
2.5757
2.5765
2.5765
2.5749
2.5733
2.5749
2.5733
2.5757
2.5757
2.5749
2.5749
2.5749
2.5749
2.5765
2.5741
2.5749
2.5725
2.5757
2.5741
2.5733
2.5741
2.5733
2.5749
2.5709
2.5717
2.5741
2.5733
2.5725
2.5725
2.5717
2.5701
2.5733
2.5709
2.5709
2.5733
2.5701
2.5717
2.5701
2.5693
2.5693
2.5693
2.5701
2.5693
2.5685
2.5685
2.5677
2.5677
2.5685
2.5660
2.5685
2.5677
2.5644
2.5660
2.5652
2.5652
2.5644
2.5652
2.5636
2.5636
2.5644
2.5628
2.5628
2.5612
2.5604
2.5620
2.5612
2.5620
2.5604
2.5588
2.5612
2.5596
2.5588
2.5604
2.5588
2.5580
2.5564
2.5588
2.5572
2.5588
2.5556
2.5572
2.5556
2.5556
2.5548
2.5556
2.5556
2.5556
2.5540
2.5532
2.5532
2.5532
2.5499
2.5523
2.5523
2.5523
2.5523
2.5515
2.5499
2.5523
2.5507
2.5523
2.5532
2.5507
2.5507
2.5523
2.5499
2.5507
2.5532
2.5507
2.5515
2.5507
2.5507
2.5499
2.5499
2.5499
2.5507
2.5483
2.5515
2.5475
2.5475
2.5491
2.5499
2.5499
2.5507
2.5499
2.5499
2.5499
2.5483
2.5507
2.5507
2.5515
2.5491
2.5507
2.5499
2.5507
2.5491
2.5507
2.5491
2.5507
2.5507
2.5507
2.5507
2.5515
2.5499
2.5515
2.5515
2.5532
2.5523
2.5523
2.5499
2.5499
2.5507
2.5507
2.5499
2.5499
2.5515
2.5499
2.5515
2.5491
2.5499
2.5491
2.5499
2.5507
2.5507
2.5499
2.5499
2.5515
2.5475
2.5483
2.5499
2.5483
2.5475
2.5491
2.5499
2.5491
2.5475
2.5491
2.5499
2.5491
2.5499
2.5491
2.5491
2.5459
2.5475
2.5475
2.5483
2.5467
2.5459
2.5483
2.5491
2.5459
2.5467
2.5459
2.5451
2.5443
2.5467
2.5451
2.5451
2.5435
2.5435
2.5451
2.5459
2.5435
2.5451
2.5435
2.5427
2.5419
2.5419
2.5419
2.5427
2.5435
2.5419
2.5427
2.5419
2.5411
2.5411
2.5403
2.5387
2.5403
2.5419
2.5387
2.5387
2.5387
2.5378
2.5354
2.5370
2.5403
2.5354
2.5378
2.5370
2.5362
2.5354
2.5362
2.5330
2.5322
2.5322
2.5338
2.5338
2.5322
2.5314
2.5314
2.5314
2.5298
2.5298
2.5306
2.5306
2.5290
2.5274
2.5282
2.5266
2.5274
2.5298
2.5258
2.5274
2.5258
2.5250
2.5266
2.5233
2.5250
2.5233
2.5242
2.5225
2.5225
2.5233
2.5209
2.5225
2.5217
2.5209
2.5201
2.5185
2.5169
2.5177
2.5177
2.5177
2.5169
2.5169
2.5161
2.5177
2.5153
2.5161
2.5153
2.5137
2.5137
2.5129
2.5113
2.5129
2.5105
2.5105
2.5096
2.5088
2.5113
2.5072
2.5064
2.5088
2.5064
2.5080
2.5056
2.5056
2.5048
2.5040
2.5048
2.5016
2.5024
2.5008
2.5032
2.5016
2.5008
2.5024
2.5000
2.5008
2.5000
2.5008
2.5000
2.4976
2.4976
2.4968
2.4984
2.4984
2.4968
2.4951
2.4943
2.4951
2.4927
2.4951
2.4919
2.4943
2.4919
2.4919
2.4911
2.4903
2.4895
2.4919
2.4903
2.4895
2.4887
2.4887
2.4879
2.4895
2.4871
2.4879
2.4879
2.4871
2.4855
2.4863
2.4847
2.4839
2.4847
2.4855
2.4839
2.4831
2.4823
2.4839
2.4823
2.4823
2.4815
2.4823
2.4798
2.4806
2.4798
2.4790
2.4782
2.4790
2.4790
2.4790
2.4798
2.4750
2.4774
2.4766
2.4758
2.4766
2.4758
2.4750
2.4750
2.4758
2.4750
2.4726
2.4710
2.4734
2.4710
2.4694
2.4710
2.4702
2.4702
2.4710
2.4694
2.4702
2.4694
2.4694
2.4669
2.4678
2.4669
2.4678
2.4661
2.4661
2.4669
2.4669
2.4645
2.4629
2.4637
2.4637
2.4637
2.4629
2.4637
2.4621
2.4613
2.4613
2.4597
2.4597
2.4581
2.4613
2.4597
2.4589
2.4565
2.4573
2.4605
2.4557
2.4549
2.4557
2.4565
2.4565
2.4557
2.4557
2.4541
2.4541
2.4541
2.4500
2.4533
2.4524
2.4541
2.4533
2.4516
2.4516
2.4508
2.4524
2.4508
2.4516
2.4492
2.4492
2.4484
2.4476
2.4484
2.4492
2.4484
2.4476
2.4476
2.4476
2.4452
2.4468
2.4444
2.4444
2.4460
2.4460
2.4460
2.4444
2.4452
2.4428
2.4452
2.4420
2.4428
2.4436
2.4452
2.4412
2.4428
2.4436
2.4428
2.4436
2.4420
2.4412
2.4396
2.4396
2.4396
2.4396
2.4379
2.4388
2.4363
2.4396
2.4379
2.4363
2.4371
2.4363
2.4363
2.4339
2.4339
2.4355
2.4331
2.4371
2.4339
2.4315
2.4331
2.4315
2.4315
2.4315
2.4315
2.4307
2.4291
2.4307
2.4307
2.4299
2.4291
2.4291
2.4275
2.4299
2.4275
2.4275
2.4267
2.4267
2.4267
2.4275
2.4259
2.4267
2.4275
2.4267
2.4234
2.4234
2.4218
2.4226
2.4226
2.4218
2.4218
2.4194
2.4218
2.4234
2.4186
2.4202
2.4202
2.4202
2.4194
2.4186
2.4186
2.4186
2.4178
2.4186
2.4170
2.4162
2.4170
2.4146
2.4146
2.4146
2.4162
2.4146
2.4138
2.4146
2.4138
2.4130
2.4138
2.4130
2.4122
2.4138
2.4130
2.4106
2.4114
2.4097
2.4106
2.4106
2.4097
2.4097
2.4089
2.4089
2.4073
2.4073
2.4073
2.4073
2.4057
2.4081
2.4065
2.4065
2.4049
2.4057
2.4041
2.4049
2.4041
2.4033
2.4049
2.4033
2.4025
2.4041
2.4017
2.4025
2.4033
2.4009
2.4017
2.3993
2.4001
2.4001
2.4001
2.4025
2.4001
2.4009
2.4001
2.4009
2.4009
2.4009
2.4017
2.4017
2.4033
2.4049
2.4033
2.4049
2.4065
2.4089
2.4081
2.4097
2.4114
2.4138
2.4146
2.4170
2.4186
2.4218
2.4234
2.4259
2.4267
2.4315
2.4339
2.4396
2.4428
2.4452
2.4476
2.4508
2.4557
2.4573
2.4629
2.4661
2.4710
2.4742
2.4782
2.4806
2.4855
2.4871
2.4919
2.4960
2.5000
2.5016
2.5056
2.5105
2.5145
2.5161
2.5169
2.5193
2.5282
2.5298
2.5330
2.5395
2.5411
2.5451
2.5475
2.5483
2.5523
2.5532
2.5580
2.5596
2.5620
2.5636
2.5660
2.5677
2.5717
2.5733
2.5749
2.5765
2.5789
2.5805
2.5822
2.5838
2.5838
2.5846
2.5870
2.5862
2.5902
2.5918
2.5926
2.5926
2.5942
2.5959
2.5959
2.5967
2.5991
2.6031
2.6007
2.6015
2.6015
2.6031
2.6015
2.6039
2.6047
2.6047
2.6047
2.6063
2.6079
2.6063
2.6079
2.6079
2.6087
2.6079
2.6096
2.6079
2.6096
2.6096
2.6087
2.6104
2.6104
2.6104
2.6104
2.6112
2.6120
2.6112
2.6120
2.6112
2.6128
2.6136
2.6128
2.6136
2.6120
2.6136
2.6128
2.6144
2.6120
2.6112
2.6120
2.6104
2.6136
2.6128
2.6112
2.6120
2.6136
2.6120
2.6128
2.6128
2.6120
2.6128
2.6112
2.6112
2.6104
2.6096
2.6120
2.6096
2.6120
2.6112
2.6120
2.6079
2.6112
2.6087
2.6112
2.6104
2.6087
2.6104
2.6104
2.6087
2.6096
2.6096
2.6104
2.6087
2.6096
2.6079
2.6079
2.6071
2.6071
2.6071
2.6079
2.6071
2.6071
2.6079
2.6063
2.6071
2.6063
2.6071
2.6063
2.6071
2.6055
2.6055
2.6063
2.6047
2.6047
2.6063
2.6039
2.6055
2.6047
2.6071
2.6031
2.6031
2.6047
2.6055
2.6071
2.6055
2.6031
2.6039
2.6031
2.6047
2.6039
2.6047
2.6047
2.6015
2.6047
2.6031
2.6039
2.6047
2.6031
2.6039
2.6039
2.6039
2.6039
2.6047
2.6031
2.6031
2.6023
2.6039
2.6047
2.6031
2.6031
2.6047
2.6039
2.6039
2.6055
2.6039
2.6047
2.6039
2.6031
2.6047
2.6039
2.6031
2.6055
2.6047
2.6063
2.6055
2.6047
2.6047
2.6039
2.6047
2.6023
2.6055
2.6063
2.6039
2.6047
2.6047
2.6039
2.6039
2.6055
2.6047
2.6039
2.6047
2.6023
2.6039
2.6055
2.6031
2.6047
2.6039
2.6023
2.6031
2.6023
2.5999
2.6023
2.6023
2.6023
2.6031
2.6015
2.6039
2.6031
2.6023
2.6015
2.6031
2.6007
2.6015
2.6015
2.6007
2.6015
2.5991
2.5959
2.5991
2.5991
2.5959
2.5975
2.5967
2.5959
2.5967
2.5959
2.5991
2.5942
2.5950
2.5950
2.5934
2.5934
2.5926
2.5926
2.5934
2.5959
2.5910
2.5910
2.5942
2.5910
2.5910
2.5902
2.5910
2.5894
2.5894
2.5878
2.5902
2.5894
2.5878
2.5862
2.5878
2.5878
2.5870
2.5878
2.5870
2.5838
2.5862
2.5846
2.5854
2.5862
2.5854
2.5846
2.5838
2.5854
2.5830
2.5846
2.5830
2.5822
2.5830
2.5830
2.5830
2.5822
2.5830
2.5822
2.5822
2.5797
2.5805
2.5797
2.5805
2.5805
2.5814
2.5805
2.5814
2.5814
2.5814
2.5814
2.5805
2.5805
2.5822
2.5797
2.5781
2.5797
2.5805
2.5805
2.5789
2.5814
2.5781
2.5773
2.5789
2.5781
2.5773
2.5797
2.5797
2.5789
2.5781
2.5797
2.5797
2.5797
2.5757
2.5781
2.5773
2.5781
2.5789
2.5781
2.5789
2.5781
2.5781
2.5765
2.5781
2.5789
2.5781
2.5773
2.5773
2.5773
2.5773
2.5773
2.5765
2.5797
2.5781
2.5773
2.5773
2.5781
2.5749
2.5757
2.5789
2.5765
2.5757
2.5781
2.5765
2.5741
2.5757
2.5757
2.5757
2.5765
2.5765
2.5741
2.5741
2.5781
2.5741
2.5749
2.5757
2.5749
2.5725
2.5749
2.5725
2.5725
2.5733
2.5749
2.5725
2.5709
2.5717
2.5725
2.5709
2.5717
2.5717
2.5709
2.5709
2.5717
2.5693
2.5709
2.5709
2.5709
2.5709
2.5693
2.5693
2.5693
2.5693
2.5685
2.5685
2.5685
2.5669
2.5693
2.5685
2.5669
2.5636
2.5652
2.5644
2.5652
2.5660
2.5652
2.5644
2.5644
2.5644
2.5620
2.5636
2.5620
2.5636
2.5604
2.5612
2.5604
2.5604
2.5580
2.5620
2.5604
2.5580
2.5580
2.5612
2.5588
2.5596
2.5564
2.5588
2.5564
2.5564
2.5564
2.5548
2.5564
2.5548
2.5548
2.5532
2.5556
2.5515
2.5523
2.5507
2.5491
2.5507
2.5507
2.5507
2.5507
2.5467
2.5483
2.5491
2.5483
2.5475
2.5459
2.5491
2.5467
2.5459
2.5435
2.5475
2.5435
2.5435
2.5435
2.5443
2.5427
2.5427
2.5427
2.5427
2.5419
2.5419
2.5403
2.5419
2.5419
2.5387
2.5378
2.5378
2.5387
2.5370
2.5370
2.5378
2.5362
2.5354
2.5354
2.5354
2.5330
2.5346
2.5330
2.5338
2.5346
2.5306
2.5322
2.5314
2.5314
2.5298
2.5298
2.5298
2.5306
2.5298
2.5290
2.5274
2.5274
2.5282
2.5274
2.5258
2.5266
2.5266
2.5242
2.5250
2.5250
2.5266
2.5233
2.5242
2.5233
2.5233
2.5209
2.5201
2.5217
2.5209
2.5185
2.5193
2.5193
2.5193
2.5201
2.5185
2.5161
2.5185
2.5185
2.5169
2.5153
2.5161
2.5161
2.5153
2.5137
2.5153
2.5145
2.5137
2.5129
2.5096
2.5129
2.5129
2.5113
2.5121
2.5105
2.5105
2.5105
2.5088
2.5080
2.5080
2.5080
2.5080
2.5072
2.5080
2.5080
2.5048
2.5048
2.5048
2.5040
2.5040
2.5040
2.5032
2.5032
2.5048
2.5024
2.5024
2.5032
2.5000
2.5008
2.5008
2.4992
2.4992
2.4976
2.5008
2.4968
2.4984
2.4968
2.4976
2.5000
2.4984
2.4968
2.4935
2.4968
2.4951
2.4943
2.4960
2.4960
2.4935
2.4935
2.4935
2.4943
2.4911
2.4927
2.4911
2.4919
2.4927
2.4911
2.4895
2.4903
2.4919
2.4887
2.4887
2.4895
2.4887
2.4903
2.4871
2.4879
2.4887
2.4871
2.4855
2.4863
2.4887
2.4871
2.4847
2.4863
2.4839
2.4839
2.4847
2.4863
2.4847
2.4831
2.4839
2.4823
2.4831
2.4815
2.4831
2.4823
2.4798
2.4798
2.4815
2.4798
2.4790
2.4782
2.4806
2.4774
2.4806
2.4774
2.4798
2.4806
2.4782
2.4766
2.4774
2.4774
2.4758
2.4742
2.4742
2.4742
2.4750
2.4718
2.4742
2.4750
2.4726
2.4726
2.4742
2.4726
2.4718
2.4718
2.4734
2.4702
2.4710
2.4702
2.4702
2.4710
2.4686
2.4678
2.4694
2.4669
2.4669
2.4694
2.4661
2.4678
2.4661
2.4678
2.4669
2.4661
2.4653
2.4629
2.4653
2.4653
2.4621
2.4637
2.4637
2.4621
2.4653
2.4621
2.4597
2.4621
2.4629
2.4621
2.4613
2.4613
2.4605
2.4589
2.4589
2.4597
2.4613
2.4573
2.4589
2.4589
2.4581
2.4581
2.4557
2.4573
2.4557
2.4549
2.4557
2.4541
2.4533
2.4549
2.4533
2.4541
2.4533
2.4524
2.4516
2.4541
2.4524
2.4500
2.4516
2.4508
2.4508
2.4500
2.4500
2.4508
2.4492
2.4500
2.4484
2.4468
2.4476
2.4460
2.4468
2.4484
2.4468
2.4420
2.4452
2.4436
2.4444
2.4444
2.4444
2.4420
2.4412
2.4412
2.4436
2.4412
2.4428
2.4412
2.4396
2.4388
2.4396
2.4388
2.4388
2.4388
2.4371
2.4363
2.4388
2.4371
2.4371
2.4379
2.4379
2.4355
2.4371
2.4339
2.4331
2.4355
2.4323
2.4339
2.4339
2.4331
2.4315
2.4323
2.4315
2.4291
2.4331
2.4299
2.4299
2.4299
2.4283
2.4283
2.4283
2.4283
2.4275
2.4251
2.4291
2.4267
2.4275
2.4234
2.4259
2.4259
2.4234
2.4234
2.4242
2.4242
2.4218
2.4226
2.4226
2.4218
2.4218
2.4210
2.4186
2.4210
2.4202
2.4186
2.4202
2.4186
2.4194
2.4186
2.4162
2.4186
2.4178
2.4170
2.4178
2.4146
2.4154
2.4154
2.4170
2.4162
2.4162
2.4154
2.4146
2.4154
2.4154
2.4130
2.4170
2.4154
2.4146
2.4162
2.4186
2.4170
2.4178
2.4202
2.4194
2.4226
2.4251
2.4259
2.4259
2.4283
2.4283
2.4307
2.4355
2.4379
2.4404
2.4428
2.4452
2.4484
2.4508
2.4533
2.4581
2.4629
2.4653
2.4710
2.4726
2.4766
2.4790
2.4823
2.4871
2.4871
2.4935
2.4951
2.4976
2.5032
2.5048
2.5080
2.5113
2.5129
2.5153
2.5161
2.5209
2.5282
2.5322
2.5378
2.5411
2.5427
2.5451
2.5499
2.5515
2.5523
2.5572
2.5588
2.5604
2.5628
2.5652
2.5677
2.5677
2.5717
2.5717
2.5749
2.5765
2.5805
2.5789
2.5822
2.5862
2.5862
2.5886
2.5902
2.5894
2.5926
2.5934
2.5926
2.5942
2.5967
2.5967
2.5991
2.5975
2.6023
2.5999
2.6023
2.6023
2.6055
2.6047
2.6055
2.6071
2.6087
2.6087
2.6096
2.6071
2.6096
2.6096
2.6144
2.6104
2.6112
2.6112
2.6112
2.6112
2.6136
2.6160
2.6152
2.6144
2.6160
2.6152
2.6144
2.6168
2.6168
2.6168
2.6152
2.6176
2.6160
2.6176
2.6160
2.6184
2.6192
2.6168
2.6168
2.6160
2.6192
2.6176
2.6152
2.6184
2.6168
2.6168
2.6168
2.6168
2.6184
2.6176
2.6168
2.6144
2.6168
2.6152
2.6168
2.6160
2.6168
2.6168
2.6160
2.6168
2.6144
2.6160
2.6168
2.6160
2.6160
2.6144
2.6160
2.6152
2.6152
2.6144
2.6152
2.6144
2.6144
2.6168
2.6160
2.6176
2.6160
2.6168
2.6160
2.6136
2.6168
2.6168
2.6152
2.6160
2.6136
2.6136
2.6136
2.6144
2.6128
2.6128
2.6120
2.6136
2.6128
2.6120
2.6128
2.6144
2.6120
2.6120
2.6120
2.6112
2.6120
2.6112
2.6104
2.6104
2.6128
2.6128
2.6104
2.6112
2.6096
2.6112
2.6112
2.6104
2.6112
2.6120
2.6112
2.6096
2.6120
2.6104
2.6120
2.6112
2.6087
2.6104
2.6120
2.6120
2.6120
2.6128
2.6112
2.6120
2.6087
2.6104
2.6096
2.6128
2.6112
2.6112
2.6128
2.6112
2.6104
2.6112
2.6096
2.6112
2.6112
2.6104
2.6104
2.6104
2.6112
2.6112
2.6112
2.6104
2.6087
2.6120
2.6087
2.6096
2.6104
2.6096
2.6112
2.6096
2.6104
2.6104
2.6096
2.6087
2.6112
2.6104
2.6087
2.6087
2.6104
2.6112
2.6104
2.6096
2.6079
2.6104
2.6087
2.6096
2.6128
2.6104
2.6120
2.6079
2.6079
2.6087
2.6071
2.6079
2.6087
2.6079
2.6079
2.6087
2.6063
2.6071
2.6055
2.6063
2.6055
2.6047
2.6087
2.6047
2.6055
2.6039
2.6031
2.6055
2.6039
2.6039
2.6031
2.6023
2.6031
2.6015
2.5991
2.6015
2.6007
2.6015
2.6015
2.5999
2.5975
2.5991
2.5967
2.5975
2.5975
2.5983
2.5991
2.5983
2.5967
2.5967
2.5959
2.5967
2.5950
2.5942
2.5950
2.5942
2.5950
2.5959
2.5926
2.5926
2.5918
2.5934
2.5926
2.5910
2.5894
2.5918
2.5918
2.5910
2.5918
2.5918
2.5918
2.5910
2.5918
2.5926
2.5918
2.5910
2.5918
2.5942
2.5894
2.5918
2.5934
2.5902
2.5910
2.5918
2.5918
2.5910
2.5910
2.5926
2.5910
2.5902
2.5886
2.5878
2.5886
2.5878
2.5870
2.5862
2.5878
2.5878
2.5886
2.5862
2.5878
2.5862
2.5878
2.5862
2.5854
2.5870
2.5862
2.5846
2.5846
2.5870
2.5846
2.5870
2.5854
2.5854
2.5854
2.5854
2.5854
2.5862
2.5838
2.5854
2.5846
2.5854
2.5846
2.5838
2.5830
2.5846
2.5830
2.5854
2.5846
2.5838
2.5814
2.5814
2.5854
2.5838
2.5838
2.5830
2.5838
2.5822
2.5830
2.5838
2.5838
2.5822
2.5830
2.5830
2.5830
2.5814
2.5822
2.5814
2.5805
2.5822
2.5822
2.5822
2.5805
2.5830
2.5822
2.5805
2.5822
2.5814
2.5789
2.5814
2.5797
2.5789
2.5797
2.5797
2.5789
2.5773
2.5781
2.5789
2.5781
2.5781
2.5789
2.5765
2.5773
2.5773
2.5773
2.5749
2.5757
2.5765
2.5757
2.5749
2.5757
2.5757
2.5749
2.5741
2.5733
2.5725
2.5741
2.5725
2.5725
2.5725
2.5717
2.5725
2.5725
2.5733
2.5717
2.5701
2.5701
2.5709
2.5685
2.5709
2.5677
2.5677
2.5669
2.5669
2.5660
2.5652
2.5669
2.5660
2.5693
2.5669
2.5660
2.5685
2.5685
2.5685
2.5669
2.5669
2.5636
2.5652
2.5644
2.5636
2.5636
2.5612
2.5636
2.5604
2.5612
2.5596
2.5620
2.5604
2.5588
2.5580
2.5580
2.5580
2.5572
2.5564
2.5540
2.5556
2.5523
2.5540
2.5548
2.5540
2.5532
2.5540
2.5523
2.5515
2.5515
2.5507
2.5523
2.5499
2.5499
2.5459
2.5491
2.5483
2.5491
2.5475
2.5467
2.5467
2.5459
2.5451
2.5443
2.5443
2.5451
2.5435
2.5451
2.5435
2.5435
2.5427
2.5435
2.5403
2.5403
2.5403
2.5395
2.5387
2.5387
2.5387
2.5362
2.5370
2.5362
2.5346
2.5362
2.5330
2.5354
2.5330
2.5346
2.5314
2.5330
2.5314
2.5322
2.5298
2.5290
2.5322
2.5290
2.5298
2.5306
2.5298
2.5282
2.5282
2.5258
2.5250
2.5266
2.5266
2.5250
2.5266
2.5250
2.5258
2.5242
2.5258
2.5225
2.5217
2.5242
2.5225
2.5242
2.5209
2.5217
2.5201
2.5201
2.5209
2.5193
2.5177
2.5193
2.5185
2.5193
2.5169
2.5161
2.5161
2.5193
2.5177
2.5169
2.5161
2.5145
2.5169
2.5161
2.5161
2.5153
2.5145
2.5105
2.5129
2.5105
2.5113
2.5121
