PPG (125 Hz)
1324
1297
1269
1241
1214
1186
1159
1134
1111
1094
1087
1097
1128
1186
1273
1388
1526
1682
1848
2016
2178
2327
2461
2573
2660
2725
2770
2794
2801
2794
2773
2740
2694
2636
2567
2488
2402
2313
2224
2136
2051
1975
1907
1845
1791
1745
1704
1669
1641
1616
1595
1580
1568
1557
1546
1534
1523
1513
1501
1487
1472
1456
1439
1422
1407
1394
1379
1364
1347
1329
1309
1287
1266
1249
1243
1253
1284
1340
1424
1536
1672
1826
1991
2160
2323
2474
2605
2717
2808
2877
2926
2953
2963
2957
2936
2901
2856
2801
2738
2667
2592
2513
2431
2348
2267
2191
2120
2056
2002
1956
1917
1885
1857
1833
1813
1795
1780
1767
1755
1741
1724
1706
1689
1671
1652
1632
1610
1587
1562
1535
1508
1480
1453
1427
1402
1375
1349
1329
1318
1320
1342
1390
1466
1568
1695
1841
1997
2156
2310
2454
2583
2694
2783
2851
2899
2930
2944
2944
2931
2904
2864
2813
2752
2683
2608
2528
2446
2361
2277
2196
2120
2051
1990
1937
1891
1852
1820
1793
1771
1753
1738
1723
1709
1695
1680
1663
1645
1627
1607
1584
1561
1537
1510
1482
1454
1426
1399
1372
1344
1316
1288
1265
1251
1251
1269
1310
1380
1477
1600
1745
1906
2074
2240
2397
2539
2661
2762
2841
2900
2937
2956
2958
2944
2917
2880
2832
2775
2711
2638
2556
2470
2381
2292
2205
2122
2043
1971
1906
1848
1798
1755
1720
1690
1664
1640
1617
1597
1578
1558
1538
1517
1496
1474
1452
1430
1406
1371
1348
1325
1280
1257
1232
1177
1148
1122
1100
1115
1157
1271
1385
1524
1680
1846
2015
2178
2327
2458
2566
2653
2719
2763
2788
2797
2792
2770
2734
2687
2630
2562
2487
2408
2325
2242
2159
2080
2006
1937
1874
1818
1770
1730
1696
1667
1644
1624
1606
1590
1575
1560
1544
1529
1516
1502
1487
1472
1454
1435
1418
1400
1382
1365
1350
1335
1319
1300
1280
1261
1244
1232
1231
1248
1288
1356
1452
1573
1716
1875
2042
2207
2366
2511
2638
2745
2832
2896
2939
2963
2967
2953
2927
2889
2840
2782
2718
2650
2577
2500
2420
2340
2262
2188
2120
2061
2009
1962
1921
1886
1856
1832
1812
1795
1781
1767
1754
1742
1730
1717
1702
1684
1664
1642
1618
1594
1570
1545
1522
1500
1478
1454
1429
1404
1378
1358
1350
1358
1388
1444
1529
1641
1774
1924
2082
2239
2390
2527
2649
2753
2834
2894
2937
2964
2974
2969
2951
2918
2873
2820
2757
2687
2609
2526
2441
2354
2269
2192
2121
2058
2002
1955
1916
1881
1851
1825
1802
1781
1763
1747
1733
1720
1706
1689
1670
1650
1629
1606
1580
1552
1522
1493
1465
1436
1408
1381
1354
1327
1303
1283
1271
1275
1300
1350
1431
1541
1675
1827
1991
2158
2318
2467
2600
2713
2807
2880
2933
2970
2988
2989
2977
2951
2911
2858
2792
2718
2639
2555
2468
2380
2293
2209
2130
2056
1987
1924
1867
1817
1772
1733
1700
1670
1643
1619
1598
1579
1561
1542
1522
1502
1480
1458
1436
1411
1386
1361
1337
1313
1289
1264
1237
1211
1185
1159
1135
1117
1112
1128
1169
1238
1337
1465
1613
1773
1939
2103
2259
2402
2528
2635
2720
2781
2820
2837
2837
2820
2786
2742
2689
2627
2558
1386
1366
1344
1322
1301
1282
1269
1269
1286
1325
1391
1484
1604
1747
1908
2077
2246
2407
2555
2684
2792
2880
2947
2994
3020
3027
3018
2993
2953
2900
2837
2765
2684
2598
2510
2423
2340
2261
2189
2125
2068
2016
1971
1933
1901
1874
1852
1834
1818
1803
1786
1764
1741
1719
1697
1676
1654
1631
1607
1582
1554
1524
1496
1469
1443
1416
1388
1360
1331
1304
1283
1275
1283
1314
1371
1455
1564
1694
1841
1998
2156
2310
2453
2580
2688
2777
2846
2895
2927
2940
2935
2917
2885
2839
2781
2714
2639
2560
2479
2397
2316
2236
2159
2088
2022
1964
1914
1871
1835
1805
1780
1758
1738
1719
1701
1683
1664
1643
1623
1603
1582
1560
1539
1517
1492
1466
1439
1411
1382
1353
1326
1298
1270
1243
1220
1206
1207
1226
1267
1337
1435
1558
1701
1857
2016
2169
2310
2434
2539
2624
2689
2735
2763
2775
2771
2751
2716
2669
2611
2541
2463
2378
2287
2194
2100
2009
1923
1842
1766
1699
1643
1594
1552
1518
1491
1471
1455
1443
1435
1428
1420
1412
1402
1390
1377
1363
1346
1326
1305
1281
1254
1227
1200
1172
1146
1121
1098
1075
1053
1033
1016
1007
1016
1048
1107
1196
1312
1452
1610
1777
1946
2107
2254
2381
2487
2568
2623
2656
2668
2664
2647
2618
2578
2529
2472
2407
2335
2257
2177
2096
2015
1938
1866
1802
1746
1698
1657
1625
1600
1579
1565
1556
1549
1545
1541
1535
1527
1517
1506
1493
1480
1466
1451
1437
1421
1402
1382
1362
1342
1324
1307
1289
1271
1254
1241
1238
1248
1279
1338
1424
1536
1670
1819
1977
2136
2288
2428
2550
2652
2733
2792
2830
2849
2852
2839
2812
2772
2722
2663
2596
2522
2444
2363
2283
2205
2130
2061
2001
1948
1901
1862
1830
1803
1782
1766
1753
1742
1731
1721
1710
1696
1678
1658
1637
1616
1594
1572
1549
1524
1498
2712
2653
2588
2516
2439
2361
2283
2205
2131
2063
2001
1946
1898
1859
1828
1802
1781
1764
1749
1737
1726
1714
1703
1692
1679
1665
1648
1629
1610
1589
1567
1544
1520
1496
1472
1449
1426
1400
1373
1346
1319
1298
1288
1295
1326
1384
1471
1585
1720
1869
2026
2181
2327
2459
2575
2672
2748
2803
2839
2858
2858
2842
2812
2770
2718
2658
2591
2517
2436
2350
2263
2175
2089
2008
1932
1866
1809
1759
1716
1679
1648
1623
1606
1592
1580
1570
1561
1552
1540
1526
1510
1491
1472
1454
1436
1418
1401
1383
1361
1336
1310
1285
1261
1237
1214
1192
1173
1161
1160
1177
1220
1291
1392
1519
1669
1832
1998
2159
2308
2440
2552
2641
2709
2758
2787
2799
2795
2777
2747
2705
2652
2589
2518
2440
2357
2272
2187
2106
2031
1962
1900
1848
1804
1769
1742
1720
1703
1689
1678
1669
1662
1657
1653
1648
1642
1633
1622
1610
1597
1582
1566
1550
1534
1519
1504
1487
1469
1451
1433
1415
1399
1388
1385
1397
1429
1484
1565
1675
1809
1960
2119
2280
2435
2577
2701
2805
2886
2945
2986
3010
3018
3011
2992
2959
2915
2861
2798
2728
2653
2575
2498
2423
2352
2286
2227
2174
2126
2083
2045
2012
1983
1958
1934
1912
1891
1870
1848
1827
1807
1788
1769
1751
1734
1717
1701
1683
1663
1642
1617
1590
1561
1531
1500
1469
1441
1415
1395
1388
1398
1431
1491
1579
1693
1828
1978
2135
2290
2438
2574
2691
2790
2870
2933
2979
3006
3015
3009
2989
2956
2911
2858
2795
2725
2650
2570
2491
2416
2343
2275
2213
2156
2104
2059
2019
1983
1950
1920
1893
1868
1846
1826
1808
1791
1775
1759
1740
1718
1694
1667
1639
1610
1581
1553
1523
1493
1461
1426
1390
1353
1316
1279
1247
1225
1219
1236
1281
1359
1471
1612
1772
1944
2118
2283
2435
2569
2681
2770
2838
2888
2918
2929
2924
2904
2870
2823
2766
2697
2619
2535
2446
2352
2258
2167
2080
1999
1927
1862
1804
1755
1715
1682
1654
1632
1616
1604
1594
1585
1576
1564
1550
1533
1513
1491
1468
1444
1420
1397
1376
1355
1335
1316
1297
1278
1258
1236
1212
1189
1173
1169
1181
1216
1278
1367
1485
1627
1786
1955
2126
2292
2447
2586
2702
2794
2864
2911
2937
2943
2933
2910
2874
2828
2772
2706
2631
2550
2464
2377
2291
2207
2130
2062
2003
1952
1908
1872
1844
1822
1805
1792
1781
1772
1763
1756
1747
1737
1726
1714
1702
1688
1670
1651
1632
1610
1588
1567
1546
1525
1505
1483
1459
1433
1410
1395
1392
1407
1448
1516
1615
1741
1886
2045
2212
2375
2530
2672
2796
2899
2980
3039
3079
3100
3102
3089
3062
3020
2966
2902
2830
2750
2664
2574
2482
2391
2305
2226
2156
2097
2048
2007
1974
1945
1921
1900
1879
1859
1839
1819
1800
1779
1757
1736
1714
1691
1666
1639
1613
1586
1559
1534
1506
1478
1452
1425
1398
1368
1337
1310
1288
1278
1288
1321
1384
1477
1598
1743
1906
2079
2254
2421
2575
2711
2826
2918
2990
3043
3077
3093
3094
3079
3049
3006
2951
2887
2815
2735
2651
2565
2478
2392
2310
2234
2163
2099
2042
1991
1947
1908
1873
1845
1821
1798
1774
1749
1724
1697
1669
1638
1605
1573
1539
1503
1466
1429
1394
1359
1327
1295
1262
1230
1198
1166
1135
1105
1080
1068
1076
1110
1175
1273
1401
1554
1726
1909
2095
2274
2438
2584
2709
2811
2888
2940
2970
2980
2972
2947
2908
2856
2793
2721
2640
2552
2459
2364
2267
2172
2082
2000
1926
1859
1801
1730
1691
1659
1615
1600
1586
1566
1552
1537
1519
1500
1481
1463
1445
1424
1401
1377
1349
1321
1295
1270
1247
1227
1206
1184
1163
1145
1132
1130
1147
1220
1302
1413
1629
1802
1984
2167
2346
2513
2664
2793
2900
2984
3044
3080
3093
3081
3053
2986
2927
2858
2779
2696
2609
2523
2439
2357
2281
2211
2148
2092
2044
2003
1968
1938
1913
1892
1872
1855
1840
1825
1810
1791
1770
1747
1723
1697
1670
1641
1612
1583
1555
1527
1497
1466
1435
1404
1373
1344
1317
1297
1288
1295
1327
1389
1481
1602
1748
1911
2083
2255
2420
2572
2708
2827
2927
3006
3063
3100
3118
3117
3098
3062
3012
2951
2880
2800
2714
2624
2533
2442
2354
2272
2197
2131
2071
2018
1971
1931
1896
1864
1836
1810
1787
1766
1744
1722
1697
1671
1645
1618
1589
1559
1529
1500
1471
1442
1412
1384
1357
1332
1307
1281
1255
1228
1202
1185
1183
1200
1241
1314
1417
1548
1701
1870
2046
2222
2392
2549
2691
2813
2913
2991
3044
3074
3084
3075
3050
3012
2964
2905
2835
2755
2667
2573
2478
2383
2292
2206
2124
2048
1978
1915
1861
1814
1773
1737
1703
1671
1640
1609
1579
1549
1518
1486
1456
1425
1394
1363
1332
1301
1271
1241
1213
1186
1157
1129
1102
1074
1046
1020
997
981
976
987
1025
1093
1193
1325
1484
1662
1851
2042
2226
2396
2545
2673
2777
2855
2908
2938
2949
2942
2917
2877
2822
2753
2673
2584
2487
2388
2289
2193
2103
2019
1943
1875
1813
1760
1715
1678
1647
1621
1599
1579
1561
1545
1529
1514
1498
1481
1464
1444
1422
1400
1377
1351
1324
1298
1273
1249
1226
1204
1184
1165
1147
1130
1114
1104
1105
1123
1164
1234
1335
1466
1624
1802
1990
2178
2360
2531
2685
2818
2928
3014
3076
3115
3132
3129
3110
3074
3022
2958
2885
2804
2717
2626
2533
2444
2356
2271
2194
2124
2063
2013
1971
1935
1905
1880
1856
1834
1814
1794
1775
1757
1739
1721
1702
1680
1655
1628
1598
1567
1537
1508
1479
1452
1426
1399
1371
1343
1315
1288
1266
1256
1263
1294
1355
1450
1575
1728
1901
2086
2273
2452
2616
2763
2889
2992
3071
3128
3163
3179
3176
3154
3116
3064
3001
2930
2848
2760
2670
2577
2485
2395
2310
2231
2159
2095
2038
1986
1941
1903
1870
1840
1812
1788
1766
1743
1720
1695
1670
1645
1620
1593
1565
1534
1501
1469
1436
1403
1372
1341
1312
1282
1252
1223
1196
1172
1157
1157
1176
1220
1294
1401
1539
1700
1878
2064
2250
2429
2593
2738
2861
2961
3038
3092
3124
3136
3131
3110
3071
3019
2955
2880
2795
2703
2606
2506
2406
2309
2220
2137
2061
1993
1932
1877
1829
1785
1745
1709
1676
1643
1611
1581
1552
1522
1492
1462
1431
1400
1367
1333
1298
1262
1226
1191
1157
1124
1092
1061
1032
1003
976
951
932
923
931
962
1021
1113
1240
1397
1577
1771
1969
2162
2342
2505
2648
2767
2861
2929
2973
2994
2994
2977
2945
2899
2839
2766
2682
2587
2483
2373
2260
2146
2036
1935
1847
1771
1707
1657
1619
1590
1567
1548
1532
1519
1506
1492
1479
1466
1452
1437
1420
1400
1378
1354
1327
1299
1271
1244
1219
1197
1175
1152
1129
1107
1084
1062
1046
1043
1062
1106
1180
1286
1421
1583
1766
1959
2155
2346
2524
2685
2824
2937
3025
3087
3126
3144
3143
3125
3090
3039
2975
2899
2814
2721
2626
2531
2438
2348
2263
2185
2113
2047
1987
1934
1890
1855
1828
1807
1791
1777
1764
1750
1735
1720
1704
1686
1665
1644
1621
1595
1568
1540
1511
1483
1454
1422
1389
1357
1326
1296
1270
1252
1248
1264
1304
1373
1475
1608
1766
1943
2131
2319
2500
2667
2814
2937
3038
3117
3177
3217
3236
3234
3213
3175
3121
3053
2972
2882
2788
2692
2597
2504
2414
2331
2255
2185
2122
2064
2013
1970
1931
1897
1867
1840
1813
1787
1762
1736
1708
1678
1649
1621
1592
1562
1532
1503
1475
1447
1419
1390
1358
1324
1289
1254
1220
1190
1167
1156
1162
1195
1257
1349
1472
1620
1789
1972
2158
2340
2511
2667
2804
2918
3010
3079
3126
3152
3157
3143
3111
3063
3004
2934
2854
2766
2673
2578
2481
2389
2302
2221
2149
2083
2025
1973
1926
1884
1846
1813
1784
1755
1727
1699
1670
1639
1608
1576
1543
1507
1469
1431
1392
1353
1316
1278
1240
1205
1172
1137
1102
1068
1035
1003
976
959
961
990
1051
1146
1273
1431
1612
1806
2004
2196
2374
2532
2666
2777
2864
2925
2965
2983
2980
2959
2921
2867
2801
2723
2635
2541
2442
2340
2240
2144
2054
1971
1897
1830
1771
1721
1677
1640
1609
1583
1559
1537
1516
1496
1478
1461
1443
1423
1403
1381
1358
1335
1312
1286
1260
1235
1209
1183
1157
1131
1105
1079
1055
1035
1022
1022
1042
1087
1163
1271
1408
1570
1752
1945
2141
2330
2504
2658
2788
2894
2975
3032
3067
3081
3076
3054
3013
2956
2886
2806
2717
2621
2520
2416
2315
2220
2133
2056
1987
1930
1882
1844
1814
1789
1771
1758
1747
1738
1728
1717
1704
1686
1665
1643
1621
1598
1573
1547
1520
1492
1461
1429
1399
1371
1343
1315
1290
1267
1249
1243
1253
1286
1349
1442
1564
1714
1884
2067
2255
2438
2609
2764
2897
3009
3099
3165
3207
3228
3229
3212
3177
3125
3056
2974
2883
2786
2685
2584
2484
2388
2297
2212
2134
2064
2002
1950
1908
1873
1843
1817
1793
1769
1745
1722
1699
1676
1652
1627
1602
1575
1548
1521
1494
1466
1436
1406
1377
1349
1322
1293
1264
1234
1206
1185
1175
1181
1212
1273
1366
1489
1640
1812
1998
2188
2372
2544
2700
2836
2950
3039
3104
3146
3167
3169
3152
3119
3075
3019
2951
2873
2788
2695
2598
2500
2403
2310
2223
2146
2077
2018
1967
1922
1882
1848
1817
1789
1762
1735
1710
1685
1663
1642
1618
1593
1567
1539
1508
1473
1438
1401
1364
1328
1293
1258
1222
1185
1147
1109
1075
1049
1037
1047
1085
1157
1263
1402
1569
1755
1950
2143
2326
2492
2638
2760
2857
2931
2981
3006
3010
2995
2959
2906
2839
2759
2670
2577
2481
2383
2286
2191
2099
2011
1930
1856
1790
1730
1678
1634
1596
1565
1539
1515
1494
1475
1457
1439
1422
1405
1389
1371
1351
1330
1306
1281
1256
1230
1204
1176
1148
1121
1095
1069
1043
1020
1002
995
1004
1034
1094
1187
1314
1471
1650
1841
2038
2229
2405
2561
2695
2804
2889
2950
2987
3004
3000
2978
2940
2886
2818
2737
2644
2544
2442
2339
2238
2142
2054
1975
1906
1846
1796
1755
1723
1698
1678
1663
1653
1645
1637
1629
1620
1607
1593
1579
1564
1549
1534
1517
1499
1478
1456
1434
1411
1388
1363
1339
1316
1293
1274
1263
1266
1288
1338
1419
1532
1673
1836
2012
2195
2377
2551
2711
2852
2971
3067
3139
3188
3213
3216
3199
3165
3115
3051
2975
2889
2794
2693
2590
2487
2388
2292
2202
2120
2048
1987
1937
1896
1863
1837
1815
1796
1777
1759
1740
1718
1696
1673
1649
1623
1594
1563
1531
1498
1464
1430
1398
1367
1338
1310
1282
1254
1227
1201
1178
1161
1156
1170
1210
1280
1381
1513
1670
1844
2029
2217
2398
2567
2720
2850
2957
3041
3102
3141
3161
3161
3143
3109
3059
2996
2922
2840
2752
2659
2565
2471
2379
2291
2208
2132
2065
2007
1957
1915
1878
1844
1814
1787
1761
1734
1706
1680
1655
1630
1604
1578
1551
1522
1491
1460
1427
1394
1360
1326
1291
1255
1220
1185
1148
1108
1071
1041
1024
1028
1061
1127
1227
1361
1523
1705
1896
2087
2273
2446
2599
2730
2835
2916
2974
3009
3022
3013
2986
2943
2886
2814
2731
2640
2487
2380
2274
2115
2012
1916
1831
1758
1695
1642
1597
1544
1518
1499
1468
1455
1443
1424
1407
1388
1366
1344
1320
1294
1269
1231
1205
1179
1143
1119
1096
1071
1046
1020
996
979
974
985
1021
1085
1180
1308
1465
1645
1841
2042
2237
2421
2586
2728
2845
2937
3004
3045
3064
3062
3041
3004
2951
2884
2804
2715
2621
2522
2419
2317
2216
2120
2033
1956
1890
1835
1791
1757
1732
1713
1699
1688
1678
1669
1661
1652
1642
1631
1619
1605
1588
1567
1543
1516
1488
1462
1437
1413
1389
1365
1340
1314
1288
1263
1243
1232
1237
1267
1325
1415
1538
1688
1860
2046
2236
2421
2595
2751
2886
2999
3088
3151
3191
3208
3204
3183
3149
3102
3041
2968
2884
2792
2694
2596
2502
2412
2326
2247
2177
2114
2057
2007
1963
1922
1885
1853
1822
1792
1762
1733
1705
1677
1650
1622
1595
1569
1542
1514
1486
1457
1428
1398
1369
1341
1311
1281
1252
1224
1197
1174
1160
1160
1181
1231
1312
1424
1564
1726
1903
2088
2272
2448
2611
2756
2877
2975
3051
3105
3138
3150
3144
3123
3088
3037
2973
2898
2812
2718
2620
2520
2420
2325
2237
2156
2083
2017
1959
1908
1861
1820
1782
1750
1723
1699
1679
1661
1642
1620
1596
1572
1546
1517
1487
1456
1424
1392
1359
1325
1290
1253
1214
1173
1132
1089
1048
1012
988
984
1006
1059
1146
1267
1420
1595
1785
1981
2174
2355
2519
2659
2774
2863
2927
2967
2985
2982
2959
2920
2866
2800
2722
2634
2538
2436
2331
2225
2119
2017
1923
1838
1761
1696
1641
1595
1558
1527
1503
1485
1469
1455
1443
1431
1418
1402
1384
1364
1341
1317
1292
1265
1239
1214
1189
1163
1136
1109
1083
1057
1031
1006
982
963
957
970
1006
1071
1171
1306
1470
1655
1852
2049
2238
2413
2571
2707
2818
2903
2965
3002
3014
3007
2983
2943
2889
2821
2743
2655
2558
2456
2351
2248
2150
2059
1977
1904
1842
1792
1751
1720
1697
1680
1667
1658
1649
1640
1630
1619
1607
1594
1579
1564
1547
1528
1506
1482
1458
1436
1414
1393
1374
1354
1333
1311
1288
1266
1250
1247
1265
1309
1383
1488
1623
1785
1965
2154
2342
2522
2688
2834
2956
3054
3129
3180
3207
3213
3198
3165
3115
3049
2972
2887
2797
2702
2604
2505
2408
2314
2226
2146
2073
2010
1957
1912
1874
1844
1818
1794
1772
1750
1728
1706
1682
1657
1631
1603
1577
1552
1525
1498
1469
1440
1410
1380
1351
1322
1291
1262
1232
1201
1174
1153
1146
1157
1194
1261
1360
1489
1644
1817
2001
2187
2368
2537
2689
2819
2927
3012
3073
3114
3133
3133
3117
3086
3041
2984
2914
2834
2746
2652
2557
2463
2371
2284
2201
2125
2056
1993
1938
1890
1850
1816
1785
1757
1730
1703
1677
1652
1627
1602
1576
1549
1523
1497
1470
1443
1416
1387
1360
1332
1304
1277
1250
1222
1194
1166
1139
1119
1112
1123
1159
1225
1324
1453
1607
1778
1958
2138
2312
2474
2617
2740
2840
2915
2966
2992
2995
2979
2945
2894
2830
2757
2675
2587
2495
2398
2300
2204
2111
2024
1941
1865
1797
1738
1686
1641
1603
1570
1540
1512
1486
1462
1438
1414
1390
1365
1341
1318
1294
1270
1246
1221
1196
1169
1142
1114
1088
1063
1039
1016
993
971
950
933
925
932
961
1021
1115
1241
1395
1572
1763
1958
2146
2322
2480
2616
2729
2819
2886
2928
2947
2946
2925
2888
2835
2768
2688
2598
2502
2401
2299
2201
2109
2025
1949
1883
1827
1780
1740
1706
1677
1653
1634
1619
1608
1598
1589
1581
1570
1555
1541
1525
1507
1490
1473
1457
1440
1423
1406
1386
1367
1349
1330
1311
1292
1272
1256
1249
1257
1285
1341
1429
1548
1693
1861
2044
2230
2412
2584
2739
2873
2984
3071
3135
3177
3197
3195
3174
3135
3080
3009
2928
2839
2744
2645
2547
2450
2356
2270
2192
2122
2060
2005
1958
1916
1879
1847
1820
1797
1776
1754
1731
1708
1684
1659
1634
1609
1584
1557
1529
1498
1465
1432
1398
1366
1337
1310
1283
1258
1232
1205
1180
1159
1150
1158
1190
1253
1348
1472
1624
1797
1980
2163
2341
2507
2657
2787
2895
2983
3050
3093
3115
3118
3101
3068
3021
2961
2890
2810
2721
2626
2528
2431
2339
2253
2175
2105
2041
1984
1933
1889
1851
1817
1787
1759
1732
1705
1680
1656
1632
1609
1588
1567
1545
1520
1492
1463
1436
1408
1378
1347
1318
1290
1262
1233
1203
1174
1148
1129
1123
1136
1174
1243
1345
1477
1634
1808
1992
2177
2356
2521
2668
2792
2892
2968
3020
3048
3054
3041
3011
2964
2902
2828
2744
2651
2551
2447
2341
2235
2132
2035
1947
1868
1797
1735
1681
1634
1594
1559
1528
1500
1476
1454
1432
1410
1385
1358
1329
1301
1273
1245
1219
1194
1168
1141
1115
1089
1063
1038
1011
984
958
931
904
880
863
858
872
913
986
1093
1234
1401
1588
1786
1985
2176
2350
2503
2634
2738
2817
2874
2906
2917
2909
2883
2842
2787
2720
2639
2548
2451
2352
2251
2153
2060
1974
1896
1827
1768
1717
1675
1640
1610
1584
1561
1542
1524
1506
1490
1475
1462
1449
1435
1420
1404
1387
1369
1350
1331
1313
1296
1281
1267
1254
1241
1228
1214
1200
1188
1181
1185
1207
1252
1322
1422
1551
1707
1883
2070
2260
2445
2620
2778
2915
3030
3120
3185
3226
3244
3242
3221
3183
3129
3062
2984
2897
2803
2704
2604
2504
2407
2317
2233
2158
2092
2035
1986
1944
1908
1876
1848
1822
1798
1777
1758
1738
1719
1700
1677
1652
1626
1598
1569
1540
1509
1480
1450
1421
1394
1366
1338
1311
1285
1258
1232
1211
1201
1206
1230
1281
1365
1480
1622
1787
1966
2149
2329
2496
2646
2780
2893
2984
3055
3108
3140
3151
3143
3118
3078
3025
2961
2886
2803
2715
2623
2530
2437
2349
2266
2188
2117
2054
1998
1950
1910
1877
1849
1823
1798
1773
1750
1727
1704
1680
1655
1629
1603
1576
1547
1518
1489
1461
1432
1402
1372
1343
1315
1290
1265
1239
1214
1191
1175
1172
1190
1236
1313
1423
1563
1727
1906
2089
2270
2441
2597
2733
2848
2941
3011
3059
3087
3095
3085
3058
3015
2959
2890
2809
2720
2625
2529
2431
2333
2237
2143
2054
1971
1897
1832
1774
1722
1676
1636
1601
1571
1543
1517
1494
1470
1444
1417
1389
1360
1331
1303
1275
1247
1218
1187
1157
1128
1099
1073
1050
1028
1007
986
964
943
925
915
920
947
1004
1092
1214
1367
1545
1738
1935
2128
2307
2469
2609
2723
2811
2874
2913
2932
2929
2908
2870
2816
2748
2669
2581
2484
2381
2277
2174
2074
1980
1893
1815
1746
1686
1636
1596
1565
1541
1522
1506
1493
1481
1469
1458
1446
1433
1419
1405
1390
1372
1353
1334
1315
1297
1280
1266
1254
1243
1233
1222
1209
1195
1180
1168
1165
1175
1203
1257
1341
1453
1593
1757
1937
2125
2312
2490
2654
2799
2924
3026
3104
3161
3198
3214
3212
3193
3157
3105
3041
2965
2879
2787
2692
2597
2505
2418
2337
2263
2197
2139
2088
2044
2006
1973
1944
1916
1890
1865
1840
1814
1788
1763
1740
1716
1691
1665
1638
1608
1576
1545
1515
1485
1456
1427
1400
1372
1343
1316
1289
1265
1248
1243
1257
1296
1365
1464
1590
1741
1908
2081
2255
2421
2573
2708
2823
2918
2992
3046
3081
3098
3097
3081
3048
2999
2939
2868
2787
2701
2612
2522
2435
2352
2273
2201
2135
2076
2023
1976
1933
1896
1863
1834
1807
1782
1757
1731
1704
1677
1652
1627
1602
1577
1551
1521
1472
1438
1403
1335
1303
1270
1221
1188
1153
1118
1085
1062
1056
1077
1130
1216
1336
1484
1744
1927
2108
2362
2508
2633
2737
2818
2874
2908
2922
2908
2882
2842
2759
2690
2610
2521
2426
2327
2226
2126
2030
1939
1856
1782
1717
1662
1617
1580
1549
1525
1505
1488
1472
1458
1445
1432
1417
1400
1380
1359
1337
1312
1287
1263
1238
1212
1187
1163
1140
1118
1094
1069
1045
1021
1001
990
992
1015
1065
1144
1255
1396
1559
1738
1924
2110
2286
2446
2586
2704
2799
2871
2920
2947
2955
2944
2914
2869
2813
2747
2671
2588
2500
2408
2314
2222
2134
2052
1979
1917
1866
1824
1791
1766
1747
1733
1721
1712
1704
1696
1687
1676
1660
1641
1623
1605
1584
1561
1540
1518
1495
1472
1448
1425
1403
1380
1356
1332
1308
1286
1270
1267
1283
1323
1391
1486
1607
1752
1913
2085
2260
2429
2586
2723
2839
2933
3005
3056
3086
3098
3094
3074
3038
2986
2919
2842
2757
2666
2571
2475
2381
2293
2211
2137
2072
2016
1969
1929
1894
1864
1838
1814
1792
1771
1751
1730
1708
1686
1664
1640
1613
1586
1557
1528
1499
1470
1441
1415
1389
1362
1336
1312
1287
1261
1236
1214
1199
1196
1212
1255
1327
1429
1559
1712
1879
2053
2225
2388
2538
2670
2782
2873
2944
2994
3023
3034
3028
3008
2975
2930
2872
2803
2726
2641
2552
2461
2370
2280
2195
2116
2043
1980
1926
1881
1844
1811
1782
1756
1731
1707
1684
1661
1639
1616
1591
1565
1536
1504
1471
1436
1398
1359
1321
1283
1246
1211
1178
1144
1110
1075
1040
1008
983
973
984
1020
1087
1188
1318
1473
1648
1832
2017
2196
2361
2508
2633
2736
2815
2870
2901
2913
2907
2885
2849
2800
2740
2672
2595
2511
2423
2333
2243
2155
2071
1993
1922
1858
1801
1751
1708
1671
1640
1612
1587
1565
1544
1524
1506
1487
1468
1450
1432
1412
1392
1372
1351
1330
1307
1285
1262
1239
1218
1196
1174
1151
1128
1107
1093
1090
1104
1141
1206
1302
1427
1577
1747
1927
2109
2285
2447
2592
2718
2822
2902
2960
2997
3014
3012
2993
2959
2911
2851
2782
2704
2619
2531
2441
2353
2270
2193
2125
2066
2015
1970
1930
1895
1865
1839
1815
1794
1774
1755
1738
1720
1701
1682
1662
1640
1615
1589
1561
1532
1503
1475
1448
1424
1402
1381
1361
1338
1312
1286
1263
1249
1249
1270
1318
1395
1502
1635
1788
1953
2123
2289
2446
2589
2715
2821
2906
2969
3011
3033
3037
3023
2994
2951
2894
2824
2745
2659
2569
2478
2387
2301
2220
2145
2078
2017
1965
1921
1884
1853
1828
1806
1787
1769
1750
1730
1709
1687
1663
1638
1611
1582
1552
1522
1492
1463
1436
1410
1385
1361
1337
1311
1283
1255
1228
1202
1181
1171
1176
1203
1258
1340
1451
1589
1747
1916
2085
2249
2403
2541
2659
2755
2829
2882
2914
2927
2923
2904
2871
2827
2772
2705
2628
2543
2454
2359
2263
2169
2079
1996
1919
1850
1790
1739
1696
1658
1625
1596
1568
1543
1522
1503
1486
1469
1453
1436
1417
1397
1375
1351
1327
1303
1276
1248
1220
1192
1166
1141
1117
1094
1071
1049
1029
1017
1019
1040
1086
1162
1269
1406
1566
1740
1921
2101
2270
2423
2557
2668
2756
2823
2869
2894
2898
2884
2855
2812
2756
2689
2613
2530
2442
2351
2260
2170
2084
2004
1931
1868
1814
1768
1729
1698
1671
1649
1631
1616
1603
1592
1581
1571
1560
1547
1535
1522
1508
1493
1477
1460
1441
1422
1403
1385
1367
1350
1332
1314
1296
1277
1263
1258
1265
1294
1349
1432
1542
1677
1832
1999
2170
2336
2493
2636
2760
2863
2945
3007
3049
3070
3071
3057
3027
2982
2923
2854
2776
2690
2597
2501
2406
2313
2227
2149
2079
2019
1968
1924
1887
1856
1827
1802
1781
1763
1746
1729
1711
1691
1670
1646
1621
1595
1567
1540
1513
1487
1462
1436
1411
1387
1361
1335
1308
1280
1254
1233
1222
1225
1251
1303
1384
1494
1630
1786
1953
2122
2285
2439
2578
2699
2802
2885
2949
2993
3019
3026
3016
2992
2953
2902
2840
2770
2693
2611
2526
2439
2354
2273
2198
2127
2062
2004
1953
1908
1869
1837
1808
1783
1763
1743
1724
1704
1682
1659
1636
1612
1587
1563
1540
1516
1492
1468
1443
1416
1387
1359
1331
1303
1276
1249
1224
1204
1194
1199
1227
1281
1362
1470
1602
1752
1912
2075
2235
2384
2517
2633
2728
2800
2851
2882
2894
2890
2871
2839
2796
2742
2678
2605
2525
2439
2349
2260
2172
2088
2011
1939
1873
1816
1764
1715
1672
1634
1601
1573
1549
1528
1507
1487
1468
1449
1430
1409
1387
1365
1343
1320
1296
1273
1251
1229
1207
1183
1158
1133
1109
1085
1064
1050
1046
1057
1091
1152
1242
1360
1503
1666
1839
2014
2182
2339
2480
2600
2699
2777
2832
2865
2879
2874
2852
2815
2764
2699
2624
2540
2450
2356
2261
2170
2082
1999
1925
1859
1802
1755
1718
1687
1663
1644
1628
1615
1604
1594
1585
1577
1567
1555
1542
1528
1513
1497
1481
1464
1446
1429
1413
1396
1377
1358
1338
1317
1297
1280
1267
1264
1275
1307
1364
1448
1558
1691
1843
2006
2172
2335
2489
2627
2748
2850
2933
2996
3037
3058
3059
3043
3012
2969
2914
2848
2774
2692
2605
2516
2427
2343
2265
2194
2130
2073
2022
1976
1935
1899
1867
1838
1811
1788
1767
1748
1729
1710
1689
1668
1645
1621
1596
1569
1542
1515
1489
1463
1437
1411
1385
1360
1335
1310
1285
1263
1249
1250
1271
1318
1394
1500
1634
1789
1955
2125
2290
2442
2580
2701
2803
2884
2943
2982
3001
3003
2989
2961
2920
2868
2806
2736
2660
2579
2496
2411
2329
2251
2177
2108
2046
1993
1947
1907
1873
1843
1816
1790
1765
1740
1714
1689
1666
1644
1623
1602
1580
1558
1534
1508
1481
1454
1426
1399
1374
1348
1321
1292
1262
1234
1209
1192
1186
1197
1230
1288
1375
1489
1624
1775
1935
2094
2245
2385
2510
2617
2706
2775
2825
2856
2869
2865
2845
2811
2764
2705
2635
2556
2469
2376
2279
2183
2088
1997
1915
1841
1775
1717
1666
1621
1583
1552
1527
1505
1486
1470
1455
1440
1423
1405
1385
1364
1343
1323
1302
1279
1256
1234
1212
1190
1169
1147
1126
1104
1080
1057
1036
1019
1011
1017
1044
1097
1181
1294
1434
1596
1771
1951
2127
2293
2444
2574
2681
2766
2829
2871
2891
2892
2876
2846
2803
2748
2681
2605
2521
2431
2339
2247
2158
2073
1996
1928
1868
1819
1781
1751
1729
1712
1698
1687
1677
1667
1659
1651
1642
1633
1624
1613
1601
1586
1567
1547
1526
1504
1483
1463
1445
1428
1409
1389
1367
1345
1325
1309
1304
1316
1350
1411
1501
1617
1754
1905
2065
2227
2384
2529
2660
2773
2867
2940
2991
3021
3030
3022
2999
2962
2912
2852
2784
2708
2626
2541
2455
2368
2282
2201
2127
2060
2001
1952
1909
1872
1840
1814
1790
1767
1747
1727
1706
1684
1662
1638
1613
1588
1562
1536
1510
1485
1461
1436
1410
1385
1361
1337
1312
1286
1260
1234
1212
1198
1199
1221
1266
1339
1442
1570
1718
1879
2047
2214
2373
2519
2647
2755
2842
2908
2954
2981
2990
2981
2959
2924
2874
2813
2744
2667
2585
2499
2411
2323
2239
2161
2090
2027
1973
1926
1884
1846
1811
1779
1749
1720
1691
1662
1631
1599
1565
1530
1493
1456
1420
1385
1352
1320
1287
1254
1221
1190
1159
1129
1100
1071
1043
1016
992
974
966
974
1006
1068
1160
1281
1429
1596
1773
1952
2124
2283
2424
2543
2640
2715
2770
2805
2822
2821
2806
2776
2733
2679
2615
2542
2461
2376
2288
2200
2113
2030
1953
1884
1822
1768
1723
1686
1654
1629
1609
1584
1568
1552
1528
1512
1495
1477
1458
1439
1422
1403
1374
1353
1330
1288
1270
1252
1225
1207
1190
1175
1169
1183
1219
1321
1428
1560
1713
1882
2058
2231
2395
2544
2673
2782
2869
2936
2981
3007
3015
3006
2981
2942
2889
2826
2754
2676
2593
2508
2423
2341
2263
2190
2122
2062
2010
1965
1928
1896
1870
1848
1827
1808
1789
1770
1750
1729
1707
1685
1662
1637
1612
1586
1560
1533
1506
1478
1450
1423
1398
1372
1346
1320
1294
1271
1255
1250
1263
1301
1366
1458
1575
1714
1868
2031
2194
2348
2490
2616
2723
2809
2874
2919
2946
2956
2952
2933
2902
2858
2802
2737
2664
2584
2500
2415
2332
2252
2177
2108
2044
1987
1940
1900
1865
1836
1810
1787
1767
1747
1726
1705
1685
1663
1641
1618
1594
1570
1544
1517
1490
1463
1436
1408
1382
1357
1333
1308
1282
1256
1230
1208
1195
1196
1217
1265
1341
1445
1574
1724
1888
2056
2221
2379
2523
2648
2752
2835
2896
2932
2948
2947
2929
2897
2854
2798
2731
2656
2572
2481
2386
2287
2188
2093
2005
1924
1852
1789
1734
1686
1645
1610
1579
1553
1529
1506
1485
1466
1447
1428
1407
1386
1363
1341
1318
1292
1267
1243
1218
1194
1170
1146
1123
1101
1080
1059
1038
1017
1000
991
997
1023
1075
1157
1270
1408
1566
1737
1913
2085
2246
2391
2518
2623
2708
2771
2814
2838
2844
2834
2808
2767
2714
2648
2571
2486
2394
2298
2201
2107
2017
1933
1857
1789
1729
1679
1638
1605
1582
1565
1554
1546
1539
1533
1527
1520
1513
1505
1494
1482
1470
1457
1442
1425
1408
1390
1373
1358
1343
1329
1315
1299
1282
1267
1259
1260
1277
1317
1384
1479
1601
1748
1911
2083
2255
2419
2570
2703
2817
2912
2987
3042
3077
3095
3095
3077
3043
2996
2937
2869
2793
2712
2628
2543
2459
2377
2298
2223
2154
2091
2037
1990
1950
1918
1892
1870
1850
1831
1813
1794
1773
1752
1730
1706
1681
1656
1628
1599
1570
1540
1511
1484
1458
1432
1405
1379
1353
1326
1300
1279
1268
1271
1294
1341
1417
1521
1651
1801
1962
2128
2291
2443
2579
2697
2797
2876
2934
2973
2994
2997
2984
2958
2921
2874
2816
2748
2673
2593
2509
2423
2338
2255
2176
2102
2035
1977
1927
1886
1853
1825
1800
1777
1757
1737
1717
1698
1678
1659
1640
1618
1595
1572
1548
1522
1496
1471
1446
1420
1394
1369
1345
1320
1294
1269
1247
1230
1222
1231
1264
1323
1410
1524
1662
1815
1977
2139
2293
2434
2558
2664
2750
2815
2859
2883
2888
2877
2853
2815
2765
2705
2636
2558
2473
2384
2294
2206
2120
2037
1961
1892
1829
1775
1728
1686
1650
1619
1592
1567
1546
1526
1506
1487
1468
1446
1423
1400
1376
1352
1327
1303
1281
1260
1240
1221
1203
1184
1162
1140
1118
1096
1074
1055
1045
1048
1070
1118
1194
1298
1430
1584
1752
1926
2097
2257
2402
2527
2631
2715
2778
2821
2844
2848
2837
2811
2770
2715
2650
2576
2495
2408
2319
2233
2149
2069
1995
1929
1874
1828
1790
1759
1735
1717
1703
1692
1683
1676
1667
1657
1646
1634
1621
1608
1594
1579
1564
1549
1534
1517
1499
1480
1461
1442
1422
1401
1380
1360
1344
1336
1341
1365
1412
1484
1583
1708
1852
2008
2170
2331
2484
2622
2742
2842
2922
2981
3019
3038
3038
3021
2989
2943
2885
2815
2737
2654
2566
2477
2390
2305
2224
2148
2080
2020
1968
1924
1887
1857
1833
1813
1795
1778
1762
1747
1731
1714
1695
1674
1651
1626
1597
1568
1539
1510
1481
1454
1428
1404
1380
1355
1330
1304
1278
1256
1242
1239
1255
1296
1364
1461
1585
1730
1888
2051
2212
2364
2503
2626
2729
2812
2875
2922
2952
2966
2965
2949
2918
2873
2817
2752
2680
2603
2522
2438
2355
2275
2199
2128
2062
2004
1953
1909
1871
1838
1808
1781
1758
1736
1715
1696
1678
1660
1641
1622
1602
1581
1559
1536
1511
1486
1459
1432
1405
1380
1357
1335
1311
1286
1261
1240
1226
1225
1245
1290
1363
1465
1593
1742
1903
2070
2233
2386
2523
2642
2740
2816
2872
2910
2929
2931
2917
2888
2844
2788
2720
2641
2555
2462
2364
2266
2170
2079
1994
1914
1841
1777
1722
1674
1634
1601
1574
1549
1527
1507
1487
1467
1447
1427
1406
1384
1362
1340
1318
1294
1268
1241
1215
1190
1165
1142
1120
1098
1076
1055
1034
1012
994
985
990
1013
1062
1140
1247
1382
1539
1711
1887
2059
2221
2368
2497
2606
2692
2757
2802
2826
2832
2821
2795
2754
2698
2631
2555
2471
2383
2295
2210
2128
2051
1980
1914
1856
1805
1761
1724
1695
1674
1656
1641
1627
1612
1596
1579
1562
1545
1528
1510
1491
1471
1451
1431
1409
1387
1368
1350
1334
1320
1308
1297
1286
1274
1263
1255
1252
1259
1284
1331
1405
1508
1637
1788
1954
2127
2299
2460
2604
2730
2835
2920
2984
3029
3056
3064
3055
3030
2991
2941
2879
2808
2731
2650
2565
2481
2399
2321
2250
2186
2129
2079
2034
1993
1958
1926
1898
1874
1851
1828
1804
1780
1754
1728
1704
1681
1660
1639
1619
1599
1578
1554
1530
1507
1483
1458
1433
1407
1380
1353
1328
1308
1297
1302
1329
1381
1459
1563
1690
1835
1991
2150
2306
2454
2588
2704
2801
2879
2937
2976
2996
2999
2988
2961
2920
2868
2808
2739
2664
2585
2503
2421
2342
2265
2193
2127
2068
2014
1966
1924
1887
1856
1827
1802
1779
1758
1738
1719
1700
1679
1657
1633
1609
1583
1555
1528
1502
1477
1454
1432
1410
1386
1360
1333
1306
1280
1257
1240
1233
1243
1276
1335
1422
1535
1671
1823
1984
2146
2302
2448
2580
2693
2787
2861
2916
2952
2969
2968
2949
2915
2869
2814
2749
2677
2599
2515
2428
2340
2254
2173
2100
2035
1978
1927
1883
1843
1807
1775
1747
1722
1697
1671
1644
1615
1583
1550
1516
1482
1448
1413
1378
1342
1308
1275
1242
1210
1179
1150
1122
1096
1071
1046
1021
998
978
965
966
986
1031
1105
1209
1342
1497
1668
1845
2021
2187
2339
2473
2585
2676
2745
2794
2823
2833
2824
2798
2759
2708
2645
2572
2490
2403
2312
2220
2130
2044
1964
1889
1822
1764
1715
1675
1644
1619
1599
1583
1569
1557
1547
1538
1527
1514
1498
1479
1457
1432
1406
1380
1355
1332
1310
1291
1274
1257
1242
1226
1209
1191
1170
1147
1127
1115
1115
1133
1175
1246
1347
1476
1629
1799
1977
2156
2328
2487
2628
2748
2847
2924
2978
3013
3030
3028
3010
2978
2932
2873
2806
2732
2653
2571
2490
2413
2339
2270
2208
2152
2103
2061
2025
1994
1966
1942
1919
1898
1878
1858
1838
1817
1796
1774
1751
1729
1707
1683
1657
1631
1605
1579
1554
1529
1505
1481
1457
1433
1408
1382
1358
1339
1329
1333
1357
1404
1477
1578
1703
1848
2004
2164
2320
2467
2601
2717
2814
2891
2951
2994
3019
3027
3018
2994
2956
2907
2848
2778
2701
2620
2537
2455
2376
2301
2232
2168
2110
2059
2015
1976
1939
1906
1877
1851
1827
1806
1785
1764
1742
1719
1695
1669
1642
1615
1590
1566
1544
1522
1500
1477
1452
1424
1395
1366
1336
1308
1284
1265
1253
1252
1266
1300
1358
1443
1556
1691
1843
2005
2168
2324
2470
2601
2714
2807
2881
2936
2972
2990
2991
2976
2944
2899
2844
2779
2706
2624
2536
2443
2348
2254
2163
2076
1995
1921
1854
1795
1744
1700
1663
1632
1605
1582
1559
1537
1516
1495
1474
1452
1430
1407
1384
1360
1336
1311
1285
1259
1234
1209
1186
1162
1137
1113
1089
1066
1045
1027
1012
1006
1017
1078
1152
1256
1543
1713
1887
2146
2304
2445
2567
2667
2746
2803
2841
2860
2852
2831
2776
2722
2656
2580
2452
2360
2264
2120
2029
1944
1867
1802
1746
1699
1661
1630
1606
1589
1577
1568
1561
1555
1547
1538
1528
1517
1505
1491
1475
1457
1438
1418
1400
1385
1372
1360
1349
1338
1326
1314
1301
1289
1279
1273
1276
1293
1332
1398
1493
1615
1760
1922
2093
2265
2431
2585
2723
2843
2943
3024
3085
3126
3148
3152
3140
3114
3074
3023
2963
2894
2816
2733
2650
2566
2483
2405
2332
2264
2203
2149
2101
2058
2019
1985
1953
1924
1898
1873
1849
1825
1801
1777
1754
1731
1709
1686
1661
1636
1609
1583
1557
1531
1507
1484
1460
1436
1411
1385
1359
1334
1313
1303
1309
1337
1392
1475
1586
1719
1869
2029
2191
2348
2495
2628
2741
2835
2910
2965
3002
3022
3026
3014
2989
2954
2907
2850
2784
2712
2636
2556
2474
2393
2315
2241
2172
2109
2055
2009
1969
1934
1903
1876
1851
1829
1808
1787
1767
1746
1724
1704
1684
1663
1642
1619
1596
1572
1547
1521
1494
1467
1441
1414
1385
1355
1324
1293
1266
1244
1232
1235
1259
1308
1384
1487
1614
1759
1918
2081
2240
2390
2526
2644
2744
2825
2886
2927
2952
2959
2951
2928
2890
2840
2779
2710
2634
2553
2470
2385
2300
2216
2135
2060
1991
1929
1874
1825
1780
1737
1699
1663
1628
1595
1564
1533
1504
1475
1447
1420
1395
1372
1349
1328
1307
1286
1264
1242
1220
1198
1176
1156
1138
1121
1104
1085
1066
1048
1035
1031
1042
1075
1135
1223
1339
1480
1640
1811
1984
2151
2305
2440
2554
2645
2714
2761
2789
2799
2793
2772
2736
2688
2630
2562
2486
2406
2322
2235
2150
2069
1994
1924
1861
1806
1757
1715
1680
1650
1624
1602
1583
1567
1553
1540
1525
1509
1492
1474
1455
1435
1415
1395
1375
1356
1338
1321
1304
1285
1267
1250
1232
1214
1197
1180
1163
1149
1140
1140
1156
1195
1260
1351
1470
1614
1777
1951
2128
2299
2459
2604
2730
2836
2921
2984
3025
3047
3049
3034
3004
2960
2905
2841
2768
2687
2601
2513
2425
2340
2262
2192
2131
2081
2039
2004
1975
1951
1929
1908
1888
1869
1850
1830
1810
1789
1767
1743
1719
1695
1669
1643
1617
1590
1561
1532
1504
1478
1453
1429
1406
1383
1358
1332
1311
1298
1294
1306
1342
1404
1493
1609
1747
1901
2063
2224
2377
2518
2642
2749
2837
2906
2957
2990
3005
3004
2987
2957
2915
2862
2798
2726
2648
2566
2483
2402
2323
2249
2181
2120
2065
2017
1976
1940
1907
1878
1852
1829
1808
1787
1766
1743
1719
1692
1664
1637
1611
1586
1561
1537
1512
1485
1458
1430
1403
1378
1353
1330
1307
1285
1265
1249
1241
1246
1271
1322
1399
1505
1637
1787
1948
2113
2273
2423
2560
2678
2777
2858
2917
2956
2976
2978
2964
2935
2892
2835
2767
2689
2604
2514
2421
2329
2241
2158
2081
2011
1947
1890
1838
1790
1746
1706
1670
1638
1609
1583
1557
1531
1506
1481
1458
1435
1413
1391
1369
1347
1324
1299
1274
1249
1224
1198
1174
1151
1129
1108
1088
1069
1053
1043
1043
1058
1092
1153
1245
1365
1509
1671
1843
2017
2186
2341
2478
2594
2688
2760
2810
2841
2856
2853
2834
2799
2751
2690
2616
2534
2447
2357
2265
2173
2086
2004
1928
1860
1801
1751
1708
1673
1647
1627
1611
1597
1584
1571
1558
1544
1529
1513
1497
1481
1464
1445
1425
1403
1380
1356
1332
1310
1290
1272
1257
1243
1228
1213
1200
1190
1190
1206
1245
1312
1406
1527
1672
1835
2008
2180
2347
2505
2647
2770
2872
2953
3014
3053
3072
3072
3057
3027
2983
2928
2862
2788
2708
2624
2537
2450
2366
2286
2213
2150
2094
2047
2008
1974
1945
1920
1897
1876
1856
1837
1819
1800
1778
1755
1731
1706
1680
1655
1632
1607
1582
1556
1528
1498
1468
1440
1414
1389
1364
1339
1318
1303
1302
1320
1362
1430
1527
1651
1794
1950
2112
2272
2425
2566
2688
2792
2877
2942
2986
3011
3020
3012
2990
2957
2914
2859
2795
2723
2645
2563
2479
2396
2316
2241
2172
2109
2053
2002
1957
1919
1886
1856
1829
1806
1784
1762
1739
1716
1692
1668
1644
1620
1595
1571
1547
1523
1500
1476
1452
1428
1403
1378
1352
1326
1301
1277
1258
1248
1253
1281
1335
1418
1529
1665
1818
1979
2141
2298
2445
2579
2695
2792
2869
2926
2963
2983
2985
2970
2941
2900
2846
2783
2714
2638
2559
2480
2400
2323
2251
2183
2120
2063
2013
1968
1928
1892
1860
1831
1803
1777
1751
1724
1696
1666
1635
1604
1572
1538
1503
1468
1431
1395
1359
1323
1288
1254
1222
1191
1161
1131
1100
1069
1040
1015
1001
1002
1024
1075
1159
1274
1416
1578
1752
1930
2104
2265
2408
2530
2630
2708
2765
2802
2818
2815
2795
2759
2709
2646
2570
2487
2400
2309
2218
2126
2036
1950
1869
1797
1733
1676
1629
1594
1566
1544
1528
1516
1506
1495
1484
1474
1463
1450
1436
1421
1404
1386
1367
1347
1326
1304
1283
1263
1241
1218
1195
1173
1152
1131
1111
1093
1081
1080
1095
1133
1198
1292
1416
1565
1733
1912
2092
2267
2429
2570
2689
2787
2863
2916
2946
2955
2946
2921
2882
2830
2767
2696
2617
2532
2442
2351
2264
2182
2109
2046
1990
1943
1906
1876
1852
1834
1821
1811
1801
1790
1778
1765
1751
1737
1722
1706
1690
1672
1652
1630
1607
1584
1562
1542
1524
1509
1495
1480
1463
1444
1423
1404
1390
1388
1403
1441
1506
1598
1715
1853
2004
2161
2318
2467
2605
2727
2832
2917
2981
3025
3050
3056
3045
3021
2983
2931
2867
2792
2709
2621
2529
2436
2343
2254
2170
2093
2026
1968
1919
1879
1846
1818
1796
1778
1761
1746
1731
1716
1699
1681
1662
1641
1620
1597
1573
1548
1521
1494
1466
1439
1414
1390
1368
1346
1322
1297
1273
1252
1238
1238
1258
1303
1377
1479
1608
1757
1920
2089
2257
2416
2559
2684
2789
2875
2941
2988
3016
3027
3022
3001
2967
2920
2861
2792
2713
2628
2540
2451
2364
2281
2203
2130
2064
2007
1960
1920
1886
1858
1834
1814
1796
1777
1760
1742
1723
1704
1682
1657
1631
1604
1574
1543
1511
1477
1443
1408
1371
1336
1301
1267
1232
1194
1155
1117
1081
1052
1037
1043
1078
1146
1246
1375
1528
1697
1873
2046
2209
2358
2488
2597
2685
2751
2796
2822
2830
2821
2799
2763
2712
2648
2573
2491
2405
2316
2225
2136
2050
1968
1891
1821
1759
1705
1660
1623
1594
1571
1554
1540
1527
1516
1505
1493
1479
1464
1448
1431
1414
1396
1376
1354
1331
1308
1285
1263
1241
1221
1202
1183
1164
1143
1125
1111
1105
1115
1148
1207
1296
1413
1556
1719
1895
2074
2246
2406
2549
2671
2770
2846
2901
2935
2949
2946
2925
2888
2837
2776
2705
2627
2544
2457
2370
2284
2203
2130
2063
2005
1957
1918
1886
1862
1846
1836
1828
1822
1817
1811
1803
1792
1777
1761
1743
1723
1703
1683
1662
1641
1621
1599
1577
1554
1530
1507
1485
1463
1441
1420
1400
1384
1379
1392
1426
1485
1572
1685
1820
1970
2128
2286
2437
2576
2699
2805
2890
2955
3001
3028
3038
3032
3010
2972
2920
2856
2782
2700
2613
2525
2437
2351
2271
2198
2132
2074
2024
1982
1947
1919
1894
1870
1848
1826
1804
1783
1762
1741
1721
1699
1677
1655
1631
1606
1579
1552
1525
1499
1473
1447
1423
1400
1377
1355
1331
1306
1282
1264
1259
1274
1312
1377
1473
1597
1742
1900
2065
2230
2386
2529
2657
2767
2857
2926
2975
3006
3017
3003
2977
2936
2854
2785
2708
2623
2488
2399
2313
2155
2087
2027
1933
1897
1867
1831
1811
1791
1772
1754
1736
1717
1698
1677
1655
1632
1607
1582
1556
1530
1504
1478
1453
1429
1405
1382
1359
1336
1312
1287
1263
1243
1232
1234
1255
1303
1380
1484
1613
1763
1925
2090
2251
2402
2536
2652
2748
2823
2879
2914
2929
2929
2913
2881
2833
2771
2697
2613
2522
2426
2329
2232
2135
2043
1956
1875
1803
1739
1684
1638
1600
1568
1542
1521
1503
1486
1468
1449
1431
1413
1393
1372
1350
1327
1304
1278
1251
1226
1201
1177
1154
1132
1111
1092
1073
1054
1035
1018
1001
989
987
1001
1038
1103
1201
1331
1488
1664
1850
2036
2215
2381
2528
2653
2755
2833
2888
2918
2927
2919
2894
2852
2797
2732
2655
2571
2480
2382
2282
2183
2088
2000
1921
1851
1790
1739
1699
1667
1643
1626
1614
1606
1601
1598
1592
1584
1576
1566
1554
1539
1521
1501
1479
1457
1436
1416
1397
1380
1363
1347
1334
1322
1309
1297
1286
1274
1265
1266
1282
1320
1384
1475
1594
1737
1899
2072
2248
2419
2578
2720
2843
2946
3027
3088
3129
3152
3158
3148
3121
3079
3024
2959
2886
2805
2721
2635
2549
2467
2390
2318
2254
2198
2149
2106
2067
2032
1998
1967
1940
1915
1892
1869
1847
1825
1802
1777
1751
1723
1694
1663
1633
1605
1578
1551
1525
1500
1476
1453
1430
1404
1377
1351
1329
1315
1315
1337
1386
1463
1570
1703
1856
2019
2186
2350
2504
2642
2762
2863
2944
3004
3045
3069
3075
3064
3038
2997
2944
2881
2809
2728
2642
2555
2468
2382
2301
2225
2155
2092
2036
1989
1950
1917
1889
1864
1842
1821
1799
1775
1750
1725
1701
1676
1650
1625
1600
1574
1549
1524
1497
1472
1448
1423
1398
1373
1349
1324
1298
1273
1252
1238
1236
1251
1288
1351
1444
1563
1705
1863
2029
2196
2356
2503
2633
2743
2833
2903
2953
2984
2998
2996
2977
2943
2896
2838
2769
2692
2610
2526
2443
2362
2283
2210
2143
2084
2031
1983
1938
1897
1861
1828
1796
1765
1736
1706
1675
1644
1611
1576
1540
1505
1470
1434
1399
1364
1326
1286
1244
1201
1159
1120
1084
1052
1023
996
971
949
929
918
922
948
1003
1091
1212
1360
1530
1713
1898
2076
2242
2392
2521
2627
2711
2771
2808
2825
2824
2807
2776
2730
2672
2604
2529
2450
2368
2287
2210
2134
2062
1996
1936
1883
1837
1797
1763
1735
1711
1688
1665
1644
1624
1606
1588
1568
1544
1515
1483
1445
1400
1350
1297
1243
1191
1144
1101
1064
1032
1005
982
958
934
910
886
867
860
870
906
974
1075
1209
1370
1550
1743
1939
2127
2302
2459
2596
2711
2806
2879
2932
2965
2980
2977
2958
2922
2873
2815
2748
2674
2596
2517
2439
2363
2292
2225
2163
2107
2057
2011
1970
1934
1902
1874
1850
1828
1807
1787
1767
1747
1726
1704
1683
1661
1637
1613
1589
1565
1541
1517
1493
1469
1446
1424
1401
1377
1354
1332
1314
1305
1310
1334
1383
1461
1567
1698
1848
2009
2173
2333
2483
2616
2731
2830
2910
2973
3021
3051
3063
3060
3042
3010
2964
2905
2837
2761
2680
2596
2512
2432
2356
2283
2213
2146
2081
2020
1966
1922
1892
1878
1879
1896
1926
1965
2007
2046
2076
2094
2100
2095
2082
2064
2044
2023
2004
1987
1974
1963
1957
1956
1957
1960
1963
1965
1965
1965
1966
1972
1991
2030
2092
2179
2292
2426
2574
2728
2879
3021
3147
3252
3336
3400
3445
3474
3484
3478
3458
3424
3377
3315
3239
3152
3055
2952
2844
2737
2635
2539
2451
2372
2302
2241
2188
2141
2099
2058
2017
1976
1932
1884
1832
1778
1724
1671
1620
1571
1524
1477
1434
1394
1357
1322
1288
1256
1225
1195
1166
1139
1113
1086
1060
1036
1014
998
993
1005
1040
1103
1195
1315
1461
1625
1799
1974
2140
2293
2429
2544
2638
2712
2766
2801
2819
2819
2802
2769
2722
2663
2595
2518
2436
2353
2270
2188
2111
2041
1978
1921
1870
1825
1787
1754
1725
1701
1682
1667
1654
1641
1629
1614
1598
1582
1564
1546
1528
1509
1489
1467
1443
1418
1395
1375
1356
1339
1324
1307
1288
1267
1247
1230
1220
1223
1246
1291
1364
1465
1591
1738
1899
2067
2233
2390
2534
2662
2771
2861
2932
2983
3015
3029
3026
3006
2971
2923
2863
2794
2719
2642
2563
2485
2409
2336
2267
2205
2150
2101
2058
2019
1986
1957
1932
1909
1887
1864
1841
1818
1795
1775
1755
1735
1714
1691
1668
1643
1618
1593
1569
1545
1522
1499
1475
1450
1424
1398
1375
1359
1353
1363
1395
1452
1535
1646
1778
1925
2081
2238
2391
2533
2658
2764
2851
2920
2969
3001
3015
3012
2995
2966
2923
2870
2808
2738
2663
2585
2505
2426
2350
2278
2210
2148
2092
2042
1999
1964
1934
1908
1885
1864
1843
1823
1803
1783
1762
1740
1718
1695
1672
1647
1622
1597
1572
1546
1522
1498
1474
1450
1425
1401
1376
1351
1329
1312
1305
1314
1344
1400
1483
1592
1721
1865
2015
2163
2304
2433
2547
2643
2721
2780
2819
2840
2843
2832
2806
2767
2718
2658
2589
2515
2437
2356
2273
2192
2113
2037
1966
1900
1840
1788
1744
1706
1673
1645
1619
1596
1575
1555
1535
1516
1498
1480
1461
1442
1421
1401
1380
1357
1337
1317
1296
1276
1258
1239
1219
1199
1179
1160
1143
1133
1134
1152
1192
1255
1345
1460
1596
1748
1908
2068
2220
2360
2484
2589
2674
2737
2781
2805
2811
2801
2775
2736
2685
2625
2556
2479
2398
2315
2233
2151
2072
1999
1934
1876
1827
1787
1754
1727
1707
1691
1676
1660
1646
1635
1625
1614
1602
1590
1578
1566
1553
1539
1525
1511
1496
1482
1470
1458
1447
1437
1425
1411
1396
1381
1371
1371
1386
1421
1482
1568
1678
1806
1946
2094
2242
2383
2514
2630
2729
2810
2872
2915
2939
2945
2936
2913
2878
2830
2772
2706
2633
2556
2476
2397
2321
2249
2182
2121
2069
2024
1985
1952
1922
1896
1873
1852
1831
1811
1791
1771
1752
1732
1711
1692
1672
1651
1630
1607
1584
1559
1534
1509
1485
1462
1439
1416
1393
1372
1353
1342
1343
1362
1403
1470
1562
1678
1813
1959
2107
2252
2387
2509
2615
2703
2772
2824
2860
2878
2881
2871
2847
2812
2766
2710
2647
2579
2506
2429
2353
2279
2208
2143
2086
2035
1991
1952
1917
1886
1857
1832
1809
1788
1767
1748
1729
1710
1690
1669
1648
1627
1606
1583
1560
1536
1511
1485
1459
1435
1413
1391
1369
1348
1326
1306
1293
1291
1304
1336
1391
1472
1576
1698
1832
1972
2112
2246
2368
2476
2569
2644
2699
2737
2758
2763
2754
2729
2692
2644
2586
2520
2448
2372
2293
2212
2131
2054
1980
1911
1849
1793
1743
1700
1663
1631
1603
1578
1555
1536
1519
1505
1491
1476
1460
1443
1426
1409
1392
1373
1354
1334
1313
1292
1270
1248
1227
1206
1184
1162
1141
1124
1113
1115
1137
1184
1257
1359
1486
1631
1787
1945
2098
2240
2368
2479
2572
2645
2699
2733
2748
2745
2727
2696
2652
2596
2530
2456
2377
2296
2214
2134
2058
1988
1925
1870
1821
1780
1745
1717
1694
1674
1658
1644
1633
1625
1617
1609
1601
1593
1583
1571
1560
1549
1539
1528
1516
1504
1491
1478
1464
1450
1436
1421
1405
1389
1375
1368
1374
1398
1443
1513
1608
1725
1860
2005
2154
2299
2435
2556
2659
2743
2808
2855
2886
2902
2904
2892
2866
2826
2773
2710
2639
2564
2484
2402
2322
2245
2173
2107
2047
1994
1948
1910
1880
1854
1831
1811
1792
1773
1754
1734
1715
1697
1678
1659
1640
1619
1598
1575
1552
1529
1506
1482
1447
1422
1397
1348
1323
1302
1289
1305
1344
1447
1549
1674
1815
1966
2118
2264
2400
2574
2668
2744
2826
2856
2870
2870
2856
2829
2792
2744
2686
2620
2549
2474
2395
2317
2240
2165
2096
2034
1980
1933
1894
1861
1834
1810
1788
1768
1749
1730
1711
1693
1675
1657
1637
1616
1593
1568
1541
1515
1490
1465
1443
1422
1400
1377
1352
1326
1302
1279
1259
1246
1244
1259
1296
1357
1445
1556
1685
1827
1973
2116
2250
2371
2476
2564
2634
2686
2722
2741
2744
2733
2710
2673
2625
2567
2499
2423
2341
2255
2168
2082
2000
1924
1855
1793
1738
1688
1643
1605
1574
1548
1526
1508
1492
1477
1464
1452
1441
1430
1417
1403
1387
1369
1348
1324
1300
1276
1253
1232
1211
1191
1171
1150
1127
1105
1087
1079
1086
1112
1164
1245
1355
1489
1639
1799
1962
2118
2262
2391
2502
2593
2666
2719
2754
2770
2769
2754
2724
2680
2625
2561
2487
2406
2321
2237
2153
2071
1994
1922
1858
1803
1757
1719
1689
1666
1649
1636
1624
1616
1609
1601
1593
1584
1573
1562
1549
1536
1521
1506
1490
1472
1453
1435
1417
1400
1384
1368
1352
1337
1323
1311
1308
1319
1349
1402
1480
1583
1707
1846
1995
2147
2294
2430
2552
2658
2746
2816
2867
2900
2916
2917
2905
2879
2840
2789
2728
2659
2586
2510
2434
2359
2288
2221
2159
2102
2051
2007
1968
1933
1903
1877
1852
1826
1802
1780
1759
1738
1716
1694
1672
1651
1630
1608
1587
1565
1541
1516
1489
1464
1440
1416
1393
1371
1348
1325
1307
1298
1304
1331
1383
1462
1567
1695
1838
1989
2143
2291
2427
2549
2654
2739
2806
2855
2887
2902
2900
2884
2856
2815
2764
2704
2636
2562
2484
2403
2322
2243
2169
2100
2037
1981
1932
1890
1855
1826
1800
1777
1756
1736
1717
1699
1682
1665
1648
1629
1609
1588
1566
1544
1521
1498
1476
1453
1429
1405
1382
1359
1336
1313
1292
1272
1256
1247
1251
1275
1323
1397
1498
1622
1764
1916
2070
2221
2363
2490
2599
2689
2760
2812
2845
2862
2863
2849
2821
2780
2727
2664
2590
2510
2426
2339
2251
2162
2075
1992
1913
1842
1778
1723
1678
1640
1609
1584
1564
1547
1531
1516
1501
1486
1470
1453
1434
1414
1393
1371
1348
1324
1300
1277
1256
1235
1214
1191
1169
1146
1120
1093
1068
1049
1042
1051
1083
1141
1227
1340
1477
1633
1799
1968
2131
2283
2418
2533
2629
2704
2758
2793
2810
2809
2794
2764
2720
2663
2596
2520
2437
2351
2264
2177
2093
2014
1941
1875
1817
1768
1727
1695
1668
1645
1627
1610
1594
1579
1564
1549
1535
1521
1508
1494
1479
1465
1451
1435
1418
1400
1382
1365
1350
1336
1323
1312
1301
1288
1273
1260
1253
1259
1281
1326
1397
1494
1614
1754
1906
2063
2221
2372
2510
2634
2740
2827
2895
2942
2970
2980
2973
2953
2920
2875
2820
2756
2686
2610
2531
2453
2376
2301
2232
2168
2110
2059
2015
1977
1944
1914
1888
1865
1844
1822
1800
1778
1755
1733
1712
1690
1669
1649
1628
1605
1581
1557
1532
1506
1480
1454
1430
1407
1385
1364
1344
1328
1320
1325
1349
1397
1471
1571
1695
1837
1990
2145
2295
2433
2557
2664
2751
2821
2873
2908
2927
2931
2920
2894
2855
2806
2746
2678
2605
2529
2451
2373
2298
2226
2158
2095
2039
1989
1944
1905
1873
1846
1821
1798
1775
1753
1731
1707
1683
1659
1635
1612
1589
1568
1545
1521
1496
1471
1447
1422
1398
1377
1358
1337
1316
1294
1273
1255
1244
1246
1267
1314
1386
1483
1605
1744
1892
2044
2194
2337
2468
2581
2676
2751
2806
2841
2860
2862
2849
2822
2781
2730
2668
2597
2519
2436
2349
2261
2174
2089
2008
1931
1861
1798
1741
1692
1649
1611
1578
1549
1524
1501
1480
1459
1439
1419
1399
1379
1359
1339
1319
1300
1281
1262
1241
1219
1196
1174
1153
1133
1114
1094
1074
1054
1036
1024
1025
1046
1090
1163
1265
1393
1543
1705
1871
2035
2190
2332
2457
2563
2649
2714
2759
2786
2795
2789
2767
2730
2680
2620
2552
2477
2398
2316
2233
2151
2072
1997
1929
1869
1816
1770
1733
1703
1679
1660
1644
1631
1620
1609
1598
1587
1578
1568
1556
1543
1529
1514
1497
1480
1463
1446
1430
1416
1403
1391
1379
1367
1354
1340
1328
1320
1321
1337
1372
1431
1517
1627
1758
1904
2058
2213
2363
2500
2621
2726
2811
2878
2926
2957
2972
2969
2951
2920
2877
2824
2761
2691
2614
2531
2446
2360
2277
2200
2129
2065
2008
1959
1917
1881
1851
1825
1803
1784
1766
1748
1729
1710
1689
1667
1644
1620
1596
1573
1550
1524
1498
1473
1449
1426
1403
1380
1358
1338
1318
1298
1278
1262
1256
1266
1296
1350
1431
1539
1669
1814
1968
2125
2278
2420
