PPG (1000 Hz)
-59164
-59170
-59172
-59169
-59161
-59166
-59164
-59164
-59169
-59165
-59166
-59164
-59160
-59166
-59171
-59165
-59166
-59165
-59163
-59164
-59164
-59168
-59167
-59170
-59165
-59163
-59161
-59165
-59160
-59171
-59169
-59170
-59169
-59164
-59170
-59167
-59172
-59169
-59168
-59168
-59165
-59170
-59171
-59175
-59170
-59172
-59165
-59175
-59175
-59171
-59174
-59169
-59168
-59169
-59175
-59173
-59171
-59174
-59169
-59176
-59175
-59172
-59170
-59170
-59173
-59173
-59171
-59167
-59173
-59168
-59169
-59174
-59171
-59169
-59175
-59172
-59173
-59171
-59172
-59171
-59169
-59176
-59175
-59173
-59168
-59168
-59173
-59172
-59176
-59172
-59171
-59170
-59178
-59173
-59175
-59176
-59172
-59175
-59169
-59172
-59166
-59171
-59171
-59168
-59166
-59172
-59173
-59169
-59173
-59172
-59170
-59174
-59171
-59173
-59174
-59170
-59176
-59169
-59170
-59174
-59172
-59178
-59171
-59172
-59174
-59174
-59176
-59173
-59173
-59175
-59175
-59174
-59174
-59171
-59171
-59173
-59172
-59175
-59166
-59175
-59173
-59177
-59168
-59171
-59171
-59174
-59170
-59173
-59169
-59167
-59171
-59175
-59174
-59167
-59169
-59171
-59169
-59176
-59168
-59173
-59171
-59168
-59167
-59169
-59170
-59168
-59170
-59169
-59164
-59167
-59171
-59166
-59162
-59172
-59172
-59168
-59175
-59170
-59166
-59168
-59167
-59169
-59169
-59176
-59167
-59165
-59171
-59170
-59170
-59172
-59167
-59170
-59167
-59171
-59167
-59165
-59165
-59166
-59166
-59165
-59162
-59171
-59163
-59162
-59165
-59167
-59158
-59167
-59159
-59164
-59161
-59163
-59169
-59169
-59162
-59166
-59170
-59167
-59163
-59168
-59160
-59166
-59167
-59164
-59169
-59164
-59157
-59166
-59169
-59165
-59170
-59166
-59168
-59168
-59162
-59166
-59166
-59165
-59164
-59163
-59162
-59162
-59163
-59161
-59164
-59166
-59158
-59164
-59169
-59163
-59163
-59159
-59159
-59162
-59159
-59158
-59165
-59164
-59165
-59158
-59155
-59159
-59161
-59161
-59158
-59163
-59160
-59169
-59162
-59164
-59158
-59162
-59166
-59165
-59165
-59162
-59162
-59166
-59165
-59161
-59165
-59160
-59160
-59163
-59164
-59167
-59167
-59161
-59158
-59165
-59169
-59162
-59165
-59165
-59164
-59161
-59166
-59167
-59159
-59155
-59161
-59161
-59161
-59171
-59158
-59162
-59162
-59162
-59159
-59161
-59162
-59158
-59162
-59162
-59157
-59162
-59157
-59161
-59165
-59165
-59163
-59164
-59164
-59164
-59161
-59164
-59163
-59164
-59157
-59169
-59164
-59164
-59164
-59164
-59158
-59165
-59160
-59162
-59162
-59163
-59162
-59165
-59163
-59164
-59165
-59165
-59168
-59165
-59164
-59161
-59159
-59163
-59164
-59164
-59168
-59165
-59166
-59166
-59168
-59165
-59160
-59169
-59160
-59164
-59166
-59160
-59164
-59171
-59162
-59164
-59165
-59166
-59165
-59169
-59163
-59164
-59164
-59159
-59162
-59165
-59167
-59161
-59160
-59160
-59164
-59163
-59160
-59170
-59165
-59163
-59164
-59164
-59169
-59160
-59165
-59157
-59163
-59161
-59158
-59164
-59159
-59161
-59159
-59165
-59166
-59164
-59158
-59162
-59165
-59163
-59165
-59161
-59160
-59165
-59160
-59160
-59162
-59164
-59159
-59163
-59164
-59157
-59162
-59165
-59162
-59162
-59161
-59169
-59164
-59164
-59157
-59166
-59166
-59155
-59161
-59160
-59159
-59162
-59162
-59166
-59163
-59160
-59165
-59161
-59162
-59160
-59163
-59160
-59167
-59164
-59168
-59160
-59169
-59163
-59163
-59165
-59160
-59161
-59162
-59164
-59165
-59161
-59168
-59160
-59161
-59163
-59160
-59161
-59162
-59163
-59165
-59165
-59164
-59166
-59162
-59165
-59165
-59161
-59167
-59163
-59165
-59161
-59164
-59165
-59163
-59160
-59165
-59168
-59165
-59170
-59156
-59162
-59162
-59169
-59167
-59161
-59161
-59167
-59164
-59161
-59163
-59167
-59167
-59163
-59172
-59169
-59166
-59165
-59164
-59166
-59160
-59167
-59163
-59164
-59166
-59166
-59169
-59167
-59162
-59167
-59167
-59167
-59169
-59164
-59168
-59161
-59166
-59171
-59169
-59161
-59167
-59160
-59165
-59165
-59166
-59170
-59164
-59169
-59169
-59166
-59170
-59162
-59160
-59165
-59162
-59166
-59167
-59167
-59168
-59163
-59170
-59165
-59165
-59172
-59164
-59168
-59170
-59168
-59172
-59168
-59167
-59169
-59164
-59164
-59168
-59170
-59168
-59169
-59171
-59169
-59165
-59168
-59176
-59169
-59173
-59169
-59173
-59165
-59165
-59173
-59173
-59171
-59173
-59169
-59172
-59171
-59166
-59172
-59169
-59170
-59166
-59165
-59176
-59164
-59171
-59173
-59171
-59171
-59174
-59170
-59173
-59172
-59174
-59179
-59175
-59173
-59175
-59179
-59171
-59178
-59180
-59176
-59175
-59171
-59175
-59174
-59171
-59180
-59171
-59171
-59173
-59174
-59176
-59181
-59174
-59172
-59181
-59172
-59177
-59174
-59173
-59174
-59177
-59179
-59171
-59179
-59174
-59172
-59179
-59177
-59177
-59177
-59175
-59171
-59173
-59176
-59172
-59177
-59174
-59174
-59177
-59177
-59176
-59180
-59177
-59180
-59179
-59179
-59181
-59174
-59174
-59179
-59179
-59178
-59175
-59178
-59183
-59178
-59181
-59174
-59178
-59178
-59175
-59181
-59179
-59182
-59174
-59178
-59176
-59179
-59179
-59176
-59178
-59178
-59176
-59178
-59180
-59184
-59184
-59180
-59180
-59180
-59178
-59186
-59178
-59174
-59178
-59183
-59174
-59177
-59176
-59178
-59177
-59177
-59174
-59180
-59182
-59176
-59174
-59171
-59181
-59174
-59177
-59180
-59177
-59173
-59177
-59178
-59174
-59177
-59178
-59177
-59178
-59172
-59174
-59172
-59176
-59175
-59174
-59179
-59173
-59177
-59174
-59176
-59178
-59175
-59171
-59173
-59176
-59172
-59172
-59168
-59166
-59175
-59175
-59179
-59174
-59170
-59166
-59168
-59172
-59169
-59175
-59166
-59172
-59174
-59170
-59168
-59170
-59168
-59168
-59169
-59163
-59163
-59167
-59165
-59162
-59163
-59157
-59159
-59160
-59159
-59160
-59156
-59161
-59162
-59158
-59157
-59162
-59161
-59152
-59154
-59156
-59156
-59148
-59154
-59151
-59150
-59145
-59152
-59149
-59143
-59144
-59153
-59144
-59150
-59147
-59147
-59147
-59143
-59147
-59142
-59140
-59145
-59139
-59140
-59140
-59136
-59137
-59136
-59135
-59135
-59137
-59137
-59132
-59137
-59134
-59136
-59132
-59134
-59128
-59130
-59126
-59128
-59129
-59133
-59129
-59127
-59127
-59126
-59124
-59128
-59121
-59121
-59121
-59118
-59116
-59120
-59119
-59123
-59118
-59120
-59118
-59116
-59114
-59112
-59121
-59119
-59117
-59113
-59112
-59114
-59110
-59115
-59110
-59108
-59114
-59108
-59107
-59102
-59104
-59109
-59106
-59106
-59101
-59107
-59097
-59106
-59109
-59107
-59105
-59113
-59100
-59102
-59106
-59102
-59104
-59105
-59104
-59106
-59096
-59100
-59100
-59105
-59102
-59098
-59097
-59097
-59101
-59093
-59097
-59096
-59098
-59101
-59091
-59095
-59099
-59095
-59100
-59098
-59097
-59097
-59095
-59097
-59093
-59097
-59091
-59092
-59092
-59093
-59092
-59096
-59096
-59100
-59094
-59095
-59094
-59090
-59091
-59096
-59092
-59096
-59094
-59088
-59098
-59094
-59091
-59092
-59094
-59090
-59092
-59095
-59093
-59097
-59096
-59092
-59091
-59089
-59089
-59093
-59092
-59091
-59092
-59090
-59098
-59093
-59092
-59092
-59093
-59091
-59089
-59088
-59089
-59091
-59093
-59093
-59095
-59093
-59094
-59095
-59094
-59097
-59087
-59091
-59099
-59095
-59094
-59090
-59091
-59089
-59091
-59093
-59093
-59092
-59092
-59095
-59087
-59096
-59093
-59100
-59098
-59092
-59099
-59094
-59092
-59093
-59097
-59092
-59091
-59095
-59093
-59100
-59098
-59095
-59095
-59099
-59096
-59092
-59097
-59099
-59098
-59097
-59094
-59092
-59092
-59093
-59094
-59096
-59099
-59093
-59098
-59094
-59096
-59096
-59096
-59102
-59098
-59097
-59096
-59097
-59097
-59097
-59101
-59094
-59099
-59098
-59100
-59104
-59097
-59103
-59100
-59097
-59105
-59102
-59105
-59100
-59103
-59102
-59101
-59105
-59101
-59099
-59102
-59100
-59111
-59101
-59099
-59102
-59104
-59105
-59101
-59108
-59100
-59102
-59101
-59106
-59101
-59103
-59097
-59109
-59097
-59099
-59100
-59100
-59099
-59098
-59104
-59105
-59097
-59098
-59104
-59102
-59104
-59105
-59108
-59103
-59105
-59100
-59101
-59101
-59103
-59103
-59100
-59104
-59097
-59101
-59100
-59105
-59103
-59102
-59106
-59104
-59100
-59107
-59102
-59104
-59102
-59104
-59107
-59104
-59104
-59104
-59107
-59104
-59105
-59102
-59101
-59105
-59099
-59103
-59104
-59101
-59098
-59103
-59099
-59100
-59099
-59098
-59103
-59101
-59104
-59100
-59105
-59101
-59102
-59103
-59098
-59103
-59099
-59102
-59104
-59100
-59100
-59095
-59102
-59101
-59112
-59106
-59105
-59103
-59105
-59104
-59104
-59104
-59100
-59099
-59103
-59103
-59100
-59099
-59097
-59100
-59101
-59102
-59095
-59097
-59092
-59095
-59102
-59100
-59097
-59096
-59100
-59098
-59100
-59099
-59096
-59097
-59101
-59097
-59098
-59101
-59097
-59095
-59105
-59096
-59101
-59094
-59100
-59102
-59098
-59102
-59100
-59103
-59105
-59097
-59098
-59101
-59101
-59100
-59099
-59094
-59097
-59099
-59097
-59098
-59100
-59096
-59098
-59096
-59100
-59093
-59091
-59095
-59093
-59098
-59097
-59095
-59092
-59097
-59096
-59098
-59097
-59095
-59094
-59098
-59094
-59095
-59096
-59101
-59098
-59098
-59106
-59096
-59099
-59096
-59102
-59100
-59097
-59095
-59098
-59098
-59094
-59101
-59101
-59087
-59102
-59095
-59093
-59104
-59100
-59094
-59098
-59094
-59096
-59100
-59102
-59100
-59095
-59094
-59102
-59101
-59097
-59101
-59101
-59098
-59101
-59096
-59100
-59101
-59100
-59104
-59096
-59103
-59102
-59095
-59095
-59101
-59104
-59106
-59099
-59104
-59099
-59104
-59101
-59093
-59103
-59101
-59102
-59098
-59101
-59104
-59099
-59098
-59099
-59099
-59104
-59097
-59099
-59096
-59099
-59098
-59099
-59100
-59098
-59097
-59096
-59102
-59096
-59100
-59091
-59096
-59106
-59103
-59099
-59101
-59104
-59098
-59103
-59102
-59098
-59103
-59099
-59099
-59101
-59103
-59104
-59099
-59096
-59103
-59098
-59100
-59098
-59103
-59098
-59101
-59098
-59095
-59105
-59106
-59099
-59105
-59103
-59105
-59099
-59101
-59097
-59101
-59107
-59099
-59104
-59102
-59102
-59106
-59106
-59102
-59098
-59099
-59099
-59105
-59103
-59104
-59101
-59104
-59103
-59098
-59100
-59099
-59099
-59101
-59098
-59105
-59099
-59101
-59100
-59101
-59103
-59105
-59108
-59103
-59103
-59102
-59103
-59099
-59104
-59104
-59105
-59103
-59107
-59103
-59098
-59097
-59103
-59104
-59104
-59108
-59103
-59103
-59102
-59107
-59102
-59104
-59103
-59109
-59105
-59104
-59104
-59107
-59105
-59109
-59102
-59104
-59101
-59102
-59110
-59107
-59103
-59103
-59105
-59104
-59104
-59103
-59108
-59104
-59106
-59104
-59108
-59103
-59107
-59103
-59107
-59107
-59109
-59108
-59109
-59103
-59112
-59110
-59112
-59106
-59108
-59104
-59104
-59108
-59111
-59112
-59109
-59107
-59107
-59110
-59107
-59110
-59108
-59112
-59110
-59112
-59116
-59107
-59105
-59111
-59105
-59112
-59111
-59107
-59111
-59113
-59112
-59110
-59110
-59115
-59109
-59111
-59105
-59105
-59106
-59113
-59109
-59110
-59113
-59109
-59115
-59109
-59113
-59118
-59110
-59115
-59111
-59108
-59113
-59104
-59113
-59117
-59112
-59110
-59114
-59119
-59109
-59114
-59110
-59112
-59113
-59118
-59113
-59116
-59111
-59112
-59113
-59112
-59120
-59114
-59114
-59110
-59113
-59115
-59113
-59117
-59114
-59112
-59115
-59114
-59115
-59119
-59114
-59119
-59116
-59119
-59113
-59121
-59118
-59111
-59118
-59116
-59119
-59116
-59122
-59120
-59117
-59122
-59114
-59121
-59123
-59117
-59120
-59116
-59110
-59120
-59120
-59118
-59120
-59117
-59119
-59115
-59119
-59123
-59120
-59121
-59122
-59122
-59121
-59121
-59125
-59123
-59122
-59125
-59120
-59119
-59120
-59120
-59123
-59127
-59125
-59117
-59121
-59121
-59121
-59122
-59122
-59127
-59115
-59125
-59121
-59119
-59122
-59124
-59120
-59125
-59124
-59123
-59127
-59121
-59122
-59118
-59124
-59122
-59126
-59123
-59124
-59121
-59121
-59120
-59125
-59122
-59123
-59128
-59132
-59128
-59120
-59125
-59125
-59119
-59129
-59128
-59122
-59126
-59124
-59126
-59127
-59122
-59125
-59128
-59120
-59124
-59128
-59123
-59122
-59123
-59124
-59126
-59125
-59128
-59128
-59127
-59129
-59123
-59130
-59128
-59127
-59129
-59132
-59129
-59127
-59129
-59131
-59127
-59129
-59132
-59130
-59130
-59127
-59126
-59124
-59125
-59134
-59124
-59132
-59133
-59127
-59128
-59128
-59131
-59129
-59132
-59129
-59129
-59132
-59135
-59133
-59131
-59133
-59134
-59130
-59126
-59130
-59131
-59128
-59133
-59131
-59135
-59130
-59133
-59127
-59131
-59133
-59138
-59132
-59128
-59136
-59129
-59128
-59137
-59132
-59131
-59138
-59135
-59135
-59128
-59141
-59139
-59139
-59132
-59133
-59135
-59127
-59132
-59135
-59138
-59137
-59139
-59135
-59144
-59140
-59138
-59135
-59139
-59134
-59129
-59138
-59133
-59140
-59135
-59140
-59135
-59136
-59132
-59135
-59131
-59144
-59137
-59139
-59140
-59141
-59133
-59138
-59137
-59143
-59136
-59135
-59144
-59139
-59137
-59144
-59143
-59138
-59142
-59138
-59141
-59140
-59140
-59141
-59140
-59139
-59144
-59139
-59143
-59140
-59141
-59145
-59140
-59144
-59142
-59140
-59145
-59139
-59147
-59143
-59141
-59145
-59145
-59142
-59146
-59145
-59146
-59137
-59148
-59142
-59143
-59145
-59140
-59142
-59147
-59149
-59145
-59146
-59141
-59143
-59146
-59142
-59148
-59145
-59145
-59145
-59146
-59143
-59145
-59135
-59145
-59144
-59141
-59142
-59145
-59148
-59141
-59140
-59142
-59149
-59138
-59138
-59143
-59146
-59137
-59143
-59143
-59142
-59146
-59146
-59143
-59147
-59143
-59137
-59147
-59141
-59135
-59142
-59142
-59142
-59141
-59139
-59145
-59140
-59141
-59133
-59136
-59137
-59141
-59139
-59142
-59135
-59138
-59137
-59138
-59134
-59135
-59128
-59135
-59131
-59129
-59131
-59128
-59134
-59132
-59132
-59133
-59130
-59133
-59126
-59130
-59128
-59124
-59126
-59126
-59123
-59112
-59128
-59128
-59129
-59123
-59131
-59120
-59116
-59117
-59118
-59115
-59118
-59114
-59116
-59112
-59115
-59114
-59116
-59112
-59116
-59107
-59108
-59116
-59113
-59108
-59107
-59109
-59107
-59110
-59103
-59108
-59102
-59103
-59107
-59103
-59106
-59106
-59100
-59102
-59100
-59104
-59103
-59097
-59099
-59103
-59099
-59098
-59097
-59096
-59100
-59094
-59093
-59097
-59097
-59093
-59098
-59093
-59098
-59093
-59092
-59091
-59091
-59091
-59089
-59087
-59093
-59086
-59092
-59088
-59084
-59088
-59084
-59087
-59086
-59083
-59087
-59083
-59084
-59087
-59086
-59082
-59088
-59083
-59088
-59083
-59082
-59089
-59089
-59085
-59089
-59083
-59084
-59087
-59080
-59081
-59081
-59077
-59082
-59080
-59081
-59080
-59082
-59080
-59076
-59077
-59076
-59078
-59075
-59076
-59080
-59073
-59078
-59077
-59077
-59074
-59076
-59079
-59079
-59081
-59074
-59079
-59077
-59076
-59073
-59079
-59071
-59074
-59076
-59075
-59069
-59077
-59080
-59077
-59074
-59077
-59072
-59079
-59072
-59077
-59073
-59076
-59076
-59074
-59077
-59075
-59078
-59078
-59074
-59075
-59074
-59070
-59066
-59073
-59075
-59078
-59072
-59077
-59071
-59080
-59076
-59071
-59073
-59072
-59077
-59079
-59074
-59082
-59079
-59078
-59077
-59085
-59079
-59083
-59080
-59079
-59079
-59075
-59081
-59083
-59081
-59080
-59078
-59074
-59080
-59083
-59082
-59078
-59081
-59082
-59081
-59084
-59083
-59084
-59080
-59083
-59088
-59079
-59085
-59082
-59077
-59086
-59082
-59082
-59082
-59081
-59089
-59084
-59087
-59083
-59086
-59084
-59085
-59085
-59086
-59081
-59082
-59082
-59084
-59088
-59087
-59084
-59084
-59085
-59080
-59087
-59085
-59087
-59082
-59081
-59082
-59084
-59086
-59081
-59085
-59087
-59084
-59085
-59092
-59087
-59086
-59086
-59088
-59092
-59094
-59089
-59095
-59091
-59091
-59096
-59086
-59090
-59087
-59090
-59093
-59085
-59088
-59090
-59092
-59094
-59096
-59092
-59086
-59096
-59094
-59090
-59090
-59091
-59099
-59096
-59093
-59093
-59091
-59090
-59096
-59090
-59092
-59099
-59097
-59095
-59093
-59095
-59095
-59096
-59092
-59096
-59099
-59090
-59097
-59090
-59103
-59092
-59096
-59097
-59097
-59102
-59093
-59092
-59094
-59091
-59093
-59095
-59094
-59094
-59093
-59098
-59093
-59101
-59099
-59096
-59093
-59097
-59099
-59100
-59093
-59086
-59097
-59099
-59095
-59097
-59102
-59098
-59099
-59097
-59095
-59095
-59103
-59094
-59098
-59089
-59098
-59092
-59095
-59096
-59096
-59095
-59097
-59094
-59101
-59098
-59101
-59095
-59097
-59097
-59093
-59098
-59097
-59097
-59101
-59101
-59097
-59098
-59099
-59102
-59098
-59099
-59100
-59094
-59095
-59097
-59093
-59096
-59098
-59097
-59090
-59090
-59101
-59098
-59102
-59096
-59099
-59096
-59098
-59098
-59095
-59092
-59092
-59094
-59090
-59098
-59098
-59098
-59098
-59096
-59102
-59098
-59094
-59093
-59097
-59102
-59098
-59096
-59101
-59095
-59100
-59102
-59095
-59098
-59100
-59097
-59095
-59098
-59097
-59092
-59094
-59101
-59094
-59094
-59097
-59098
-59103
-59095
-59094
-59098
-59095
-59100
-59098
-59101
-59093
-59100
-59099
-59099
-59099
-59098
-59099
-59095
-59098
-59099
-59096
-59096
-59093
-59096
-59098
-59099
-59100
-59099
-59096
-59098
-59098
-59094
-59093
-59094
-59095
-59099
-59098
-59099
-59096
-59094
-59099
-59101
-59099
-59099
-59102
-59102
-59100
-59099
-59100
-59099
-59108
-59099
-59099
-59098
-59102
-59098
-59099
-59099
-59100
-59101
-59101
-59096
-59101
-59097
-59097
-59101
-59094
-59102
-59094
-59100
-59102
-59103
-59101
-59096
-59099
-59098
-59103
-59096
-59100
-59098
-59102
-59102
-59102
-59101
-59096
-59102
-59101
-59099
-59093
-59108
-59103
-59106
-59105
-59104
-59107
-59108
-59105
-59103
-59101
-59108
-59108
-59102
-59099
-59107
-59110
-59105
-59103
-59104
-59100
-59106
-59111
-59104
-59107
-59108
-59103
-59108
-59105
-59105
-59106
-59101
-59101
-59107
-59106
-59105
-59114
-59108
-59104
-59107
-59101
-59104
-59112
-59108
-59105
-59109
-59113
-59110
-59109
-59106
-59111
-59102
-59106
-59106
-59106
-59107
-59108
-59106
-59114
-59104
-59106
-59111
-59102
-59105
-59110
-59113
-59114
-59109
-59107
-59108
-59110
-59109
-59107
-59111
-59109
-59113
-59109
-59115
-59112
-59110
-59114
-59104
-59114
-59113
-59107
-59107
-59112
-59109
-59108
-59111
-59116
-59113
-59111
-59116
-59104
-59115
-59106
-59108
-59117
-59116
-59116
-59111
-59109
-59112
-59115
-59110
-59109
-59109
-59117
-59114
-59113
-59113
-59121
-59108
-59115
-59118
-59116
-59113
-59119
-59115
-59116
-59120
-59117
-59116
-59117
-59120
-59116
-59119
-59119
-59115
-59114
-59119
-59117
-59115
-59111
-59120
-59120
-59118
-59117
-59119
-59122
-59114
-59115
-59121
-59121
-59118
-59115
-59118
-59118
-59116
-59123
-59124
-59115
-59119
-59124
-59124
-59118
-59121
-59121
-59123
-59118
-59118
-59120
-59118
-59124
-59122
-59118
-59117
-59120
-59119
-59117
-59127
-59123
-59123
-59121
-59126
-59120
-59120
-59120
-59120
-59126
-59124
-59116
-59126
-59125
-59117
-59126
-59124
-59123
-59129
-59127
-59126
-59129
-59127
-59126
-59123
-59124
-59121
-59128
-59128
-59128
-59128
-59127
-59122
-59123
-59129
-59127
-59125
-59131
-59126
-59127
-59126
-59129
-59127
-59126
-59129
-59128
-59128
-59130
-59126
-59122
-59123
-59130
-59126
-59124
-59132
-59125
-59127
-59129
-59130
-59132
-59133
-59132
-59133
-59132
-59128
-59131
-59130
-59132
-59128
-59127
-59128
-59125
-59124
-59132
-59137
-59131
-59132
-59132
-59129
-59132
-59134
-59133
-59137
-59133
-59134
-59137
-59130
-59133
-59133
-59134
-59133
-59135
-59137
-59136
-59134
-59136
-59131
-59138
-59130
-59131
-59132
-59135
-59130
-59134
-59139
-59135
-59132
-59137
-59134
-59138
-59137
-59134
-59139
-59137
-59138
-59132
-59137
-59139
-59138
-59134
-59134
-59134
-59140
-59138
-59137
-59139
-59139
-59135
-59137
-59139
-59138
-59136
-59128
-59133
-59132
-59137
-59140
-59135
-59139
-59137
-59140
-59137
-59137
-59135
-59138
-59139
-59138
-59142
-59145
-59144
-59141
-59138
-59137
-59136
-59144
-59141
-59138
-59138
-59136
-59144
-59142
-59136
-59139
-59142
-59139
-59136
-59137
-59144
-59136
-59145
-59136
-59142
-59137
-59141
-59143
-59149
-59140
-59139
-59139
-59139
-59145
-59145
-59143
-59139
-59141
-59149
-59144
-59148
-59143
-59144
-59146
-59141
-59148
-59143
-59143
-59147
-59145
-59146
-59147
-59142
-59151
-59146
-59142
-59147
-59150
-59141
-59146
-59150
-59148
-59146
-59149
-59148
-59144
-59149
-59143
-59143
-59150
-59152
-59146
-59149
-59147
-59144
-59155
-59149
-59147
-59147
-59152
-59146
-59152
-59152
-59149
-59148
-59148
-59149
-59149
-59152
-59158
-59148
-59148
-59153
-59153
-59150
-59150
-59152
-59147
-59150
-59154
-59155
-59151
-59153
-59154
-59152
-59150
-59151
-59153
-59149
-59150
-59157
-59155
-59149
-59151
-59153
-59155
-59153
-59155
-59154
-59155
-59152
-59154
-59154
-59157
-59155
-59153
-59155
-59153
-59154
-59155
-59152
-59158
-59155
-59155
-59152
-59155
-59155
-59155
-59156
-59146
-59155
-59154
-59157
-59149
-59161
-59156
-59158
-59161
-59160
-59158
-59151
-59163
-59157
-59160
-59160
-59155
-59164
-59158
-59164
-59169
-59163
-59159
-59161
-59161
-59160
-59159
-59161
-59162
-59161
-59162
-59169
-59160
-59162
-59159
-59164
-59166
-59169
-59166
-59166
-59162
-59163
-59167
-59170
-59166
-59164
-59168
-59167
-59168
-59165
-59169
-59165
-59171
-59168
-59167
-59165
-59169
-59162
-59174
-59168
-59171
-59169
-59167
-59170
-59167
-59170
-59169
-59164
-59167
-59166
-59166
-59165
-59154
-59169
-59166
-59174
-59163
-59173
-59162
-59171
-59168
-59164
-59163
-59164
-59164
-59165
-59167
-59167
-59162
-59162
-59162
-59168
-59156
-59163
-59162
-59160
-59162
-59162
-59160
-59163
-59158
-59158
-59160
-59157
-59158
-59161
-59160
-59154
-59161
-59150
-59157
-59155
-59158
-59151
-59154
-59157
-59153
-59158
-59153
-59154
-59150
-59156
-59153
-59150
-59150
-59156
-59156
-59152
-59141
-59144
-59151
-59151
-59144
-59147
-59146
-59144
-59147
-59151
-59147
-59143
-59148
-59149
-59143
-59143
-59145
-59141
-59144
-59136
-59142
-59138
-59142
-59144
-59141
-59138
-59137
-59139
-59141
-59140
-59141
-59136
-59137
-59136
-59139
-59137
-59133
-59133
-59137
-59131
-59135
-59133
-59135
-59132
-59129
-59130
-59133
-59131
-59129
-59125
-59126
-59135
-59130
-59131
-59130
-59132
-59133
-59130
-59129
-59129
-59126
-59127
-59131
-59135
-59128
-59136
-59126
-59128
-59131
-59127
-59123
-59131
-59123
-59120
-59129
-59126
-59131
-59125
-59124
-59121
-59122
-59125
-59127
-59125
-59123
-59124
-59128
-59125
-59120
-59125
-59126
-59125
-59127
-59129
-59126
-59128
-59124
-59132
-59132
-59127
-59128
-59124
-59127
-59126
-59125
-59126
-59124
-59126
-59129
-59126
-59128
-59125
-59122
-59127
-59124
-59122
-59123
-59129
-59129
-59127
-59129
-59127
-59122
-59129
-59128
-59121
-59125
-59128
-59123
-59128
-59127
-59125
-59125
-59129
-59120
-59126
-59130
-59126
-59126
-59120
-59128
-59124
-59131
-59127
-59127
-59124
-59123
-59129
-59127
-59129
-59131
-59130
-59122
-59127
-59123
-59127
-59131
-59132
-59127
-59129
-59132
-59130
-59132
-59132
-59136
-59138
-59134
-59133
-59132
-59134
-59140
-59139
-59139
-59134
-59139
-59136
-59135
-59136
-59130
-59135
-59142
-59136
-59132
-59134
-59139
-59134
-59139
-59132
-59135
-59138
-59136
-59141
-59137
-59139
-59138
-59135
-59135
-59138
-59140
-59134
-59136
-59138
-59137
-59141
-59135
-59146
-59137
-59136
-59144
-59141
-59145
-59138
-59139
-59137
-59143
-59140
-59142
-59138
-59143
-59143
-59142
-59143
-59144
-59146
-59144
-59141
-59141
-59143
-59151
-59149
-59146
-59148
-59144
-59143
-59148
-59146
-59144
-59147
-59151
-59143
-59149
-59150
-59148
-59149
-59146
-59147
-59147
-59148
-59148
-59149
-59153
-59146
-59144
-59149
-59153
-59153
-59150
-59150
-59151
-59150
-59153
-59153
-59153
-59151
-59157
-59156
-59155
-59153
-59157
-59152
-59153
-59151
-59152
-59154
-59154
-59156
-59149
-59155
-59151
-59149
-59158
-59154
-59151
-59154
-59154
-59151
-59155
-59152
-59155
-59161
-59157
-59155
-59155
-59154
-59150
-59154
-59155
-59160
-59158
-59152
-59155
-59158
-59154
-59156
-59154
-59156
-59150
-59156
-59150
-59149
-59153
-59153
-59158
-59160
-59152
-59156
-59158
-59158
-59158
-59159
-59159
-59154
-59159
-59154
-59158
-59161
-59155
-59159
-59153
-59155
-59150
-59154
-59157
-59154
-59154
-59161
-59161
-59158
-59159
-59164
-59152
-59155
-59157
-59153
-59153
-59154
-59159
-59158
-59159
-59162
-59156
-59160
-59160
-59159
-59158
-59153
-59156
-59159
-59161
-59160
-59160
-59162
-59160
-59160
-59163
-59161
-59155
-59153
-59167
-59158
-59163
-59152
-59153
-59154
-59165
-59161
-59155
-59161
-59159
-59157
-59155
-59160
-59160
-59161
-59159
-59161
-59161
-59166
-59161
-59163
-59162
-59159
-59165
-59159
-59157
-59159
-59164
-59163
-59157
-59159
-59164
-59158
-59158
-59160
-59156
-59160
-59163
-59158
-59157
-59152
-59156
-59160
-59164
-59160
-59161
-59160
-59165
-59161
-59164
-59157
-59162
-59162
-59160
-59164
-59157
-59160
-59164
-59162
-59163
-59162
-59164
-59163
-59155
-59163
-59160
-59164
-59159
-59165
-59166
-59164
-59165
-59164
-59161
-59166
-59161
-59160
-59160
-59166
-59161
-59158
-59164
-59169
-59164
-59164
-59163
-59163
-59166
-59167
-59159
-59165
-59166
-59160
-59161
-59168
-59163
-59159
-59162
-59161
-59163
-59166
-59166
-59164
-59166
-59162
-59164
-59166
-59160
-59169
-59164
-59164
-59166
-59168
-59168
-59165
-59163
-59169
-59172
-59167
-59162
-59163
-59164
-59168
-59172
-59170
-59168
-59167
-59170
-59169
-59173
-59170
-59175
-59171
-59169
-59165
-59170
-59173
-59173
-59173
-59174
-59174
-59174
-59168
-59169
-59165
-59169
-59171
-59167
-59167
-59167
-59167
-59172
-59167
-59175
-59172
-59173
-59170
-59166
-59171
-59169
-59174
-59170
-59173
-59170
-59170
-59175
-59171
-59174
-59173
-59170
-59173
-59179
-59176
-59177
-59175
-59172
-59175
-59176
-59181
-59174
-59179
-59177
-59176
-59177
-59175
-59181
-59174
-59177
-59180
-59176
-59179
-59177
-59177
-59179
-59174
-59173
-59178
-59177
-59176
-59177
-59179
-59176
-59175
-59183
-59185
-59187
-59180
-59174
-59174
-59177
-59182
-59179
-59183
-59183
-59175
-59184
-59181
-59176
-59183
-59182
-59178
-59187
-59179
-59183
-59181
-59182
-59181
-59180
-59178
-59180
-59180
-59184
-59175
-59181
-59182
-59183
-59183
-59185
-59179
-59179
-59180
-59183
-59187
-59178
-59182
-59180
-59178
-59181
-59186
-59183
-59182
-59182
-59185
-59180
-59187
-59181
-59184
-59184
-59186
-59185
-59183
-59185
-59187
-59187
-59183
-59188
-59192
-59183
-59188
-59185
-59185
-59178
-59186
-59182
-59184
-59184
-59185
-59192
-59180
-59182
-59185
-59187
-59185
-59188
-59187
-59182
-59188
-59188
-59189
-59192
-59191
-59185
-59185
-59193
-59191
-59188
-59191
-59195
-59192
-59190
-59193
-59192
-59187
-59189
-59189
-59186
-59189
-59190
-59192
-59188
-59192
-59190
-59193
-59193
-59189
-59192
-59188
-59191
-59191
-59190
-59191
-59194
-59195
-59190
-59188
-59189
-59190
-59195
-59191
-59200
-59192
-59189
-59187
-59195
-59192
-59195
-59193
-59197
-59196
-59192
-59196
-59197
-59192
-59195
-59195
-59191
-59198
-59195
-59202
-59198
-59195
-59198
-59197
-59200
-59196
-59197
-59198
-59202
-59202
-59201
-59200
-59193
-59197
-59200
-59198
-59201
-59200
-59202
-59197
-59200
-59199
-59202
-59201
-59198
-59203
-59198
-59201
-59198
-59202
-59205
-59199
-59195
-59207
-59199
-59198
-59202
-59206
-59202
-59202
-59201
-59201
-59200
-59206
-59202
-59204
-59206
-59202
-59207
-59200
-59201
-59202
-59206
-59199
-59211
-59202
-59207
-59208
-59208
-59203
-59204
-59206
-59205
-59202
-59209
-59206
-59206
-59205
-59207
-59205
-59204
-59205
-59209
-59205
-59209
-59207
-59207
-59214
-59207
-59210
-59209
-59213
-59213
-59208
-59212
-59211
-59215
-59210
-59206
-59210
-59210
-59207
-59211
-59210
-59212
-59211
-59211
-59213
-59214
-59212
-59213
-59211
-59215
-59213
-59211
-59215
-59212
-59212
-59209
-59211
-59215
-59212
-59207
-59221
-59210
-59215
-59220
-59216
-59213
-59219
-59215
-59216
-59214
-59214
-59208
-59215
-59213
-59212
-59215
-59218
-59217
-59210
-59216
-59214
-59216
-59214
-59214
-59213
-59222
-59221
-59216
-59220
-59218
-59215
-59216
-59212
-59219
-59213
-59220
-59220
-59218
-59224
-59220
-59212
-59218
-59220
-59221
-59218
-59216
-59224
-59220
-59218
-59216
-59221
-59221
-59224
-59220
-59218
-59218
-59219
-59223
-59216
-59225
-59227
-59220
-59216
-59221
-59223
-59222
-59222
-59223
-59217
-59222
-59224
-59225
-59223
-59225
-59222
-59222
-59223
-59224
-59220
-59223
-59225
-59221
-59227
-59222
-59224
-59224
-59221
-59226
-59226
-59224
-59223
-59226
-59224
-59233
-59227
-59228
-59228
-59228
-59229
-59229
-59227
-59223
-59232
-59224
-59223
-59223
-59227
-59225
-59229
-59229
-59225
-59234
-59221
-59225
-59223
-59223
-59225
-59230
-59226
-59217
-59221
-59224
-59223
-59229
-59217
-59221
-59222
-59221
-59223
-59222
-59222
-59220
-59227
-59226
-59220
-59219
-59224
-59217
-59213
-59216
-59219
-59220
-59214
-59220
-59219
-59215
-59219
-59220
-59218
-59214
-59214
-59212
-59217
-59218
-59213
-59218
-59217
-59215
-59218
-59215
-59214
-59214
-59212
-59208
-59210
-59206
-59208
-59213
-59213
-59208
-59212
-59212
-59206
-59210
-59205
-59205
-59205
-59207
-59208
-59208
-59201
-59207
-59212
-59199
-59202
-59207
-59208
-59204
-59201
-59204
-59202
-59204
-59199
-59201
-59205
-59206
-59202
-59197
-59204
-59204
-59202
-59198
-59199
-59194
-59197
-59207
-59195
-59202
-59194
-59197
-59194
-59194
-59199
-59202
-59190
-59190
-59195
-59199
-59200
-59194
-59198
-59194
-59193
-59196
-59194
-59198
-59191
-59194
-59192
-59190
-59198
-59195
-59196
-59201
-59194
-59203
-59195
-59197
-59194
-59193
-59194
-59189
-59193
-59194
-59192
-59189
-59195
-59196
-59202
-59197
-59199
-59199
-59201
-59191
-59201
-59198
-59191
-59197
-59194
-59195
-59199
-59201
-59199
-59202
-59203
-59195
-59200
-59199
-59195
-59201
-59193
-59199
-59207
-59195
-59196
-59200
-59200
-59195
-59199
-59197
-59197
-59196
-59197
-59195
-59201
-59201
-59194
-59195
-59198
-59199
-59203
-59202
-59200
-59200
-59203
-59208
-59201
-59200
-59205
-59202
-59205
-59208
-59207
-59195
-59200
-59202
-59206
-59208
-59198
-59204
-59204
-59207
-59202
-59205
-59200
-59207
-59206
-59208
-59201
-59206
-59208
-59204
-59207
-59209
-59210
-59203
-59206
-59212
-59205
-59207
-59208
-59206
-59208
-59208
-59212
-59210
-59208
-59215
-59206
-59212
-59210
-59209
-59207
-59211
-59213
-59208
-59211
-59211
-59213
-59214
-59215
-59211
-59210
-59207
-59213
-59211
-59208
-59214
-59210
-59211
-59215
-59215
-59209
-59214
-59213
-59213
-59216
-59212
-59217
-59216
-59216
-59212
-59216
-59216
-59217
-59221
-59217
-59223
-59220
-59219
-59221
-59222
-59219
-59215
-59222
-59215
-59217
-59220
-59219
-59222
-59214
-59222
-59216
-59221
-59224
-59221
-59222
-59217
-59223
-59217
-59222
-59222
-59222
-59226
-59228
-59222
-59222
-59221
-59225
-59225
-59219
-59228
-59225
-59227
-59227
-59226
-59219
-59227
-59228
-59224
-59224
-59223
-59222
-59221
-59228
-59225
-59234
-59229
-59225
-59225
-59226
-59230
-59228
-59224
-59228
-59226
-59221
-59225
-59228
-59226
-59226
-59230
-59225
-59227
-59230
-59226
-59235
-59227
-59235
-59232
-59231
-59232
-59228
-59228
-59225
-59228
-59223
-59225
-59224
-59227
-59227
-59233
-59224
-59227
-59233
-59228
-59224
-59226
-59232
-59230
-59224
-59224
-59235
-59234
-59233
-59234
-59233
-59229
-59229
-59227
-59231
-59224
-59232
-59229
-59227
-59228
-59230
-59231
-59233
-59234
-59229
-59234
-59226
-59231
-59230
-59228
-59232
-59228
-59232
-59232
-59234
-59230
-59229
-59229
-59228
-59232
-59231
-59232
-59237
-59231
-59229
-59230
-59230
-59228
-59233
-59229
-59231
-59233
-59234
-59233
-59226
-59229
-59228
-59232
-59228
-59233
-59232
-59240
-59233
-59231
-59236
-59232
-59233
-59232
-59232
-59235
-59231
-59232
-59235
-59232
-59238
-59231
-59232
-59230
-59232
-59233
-59231
-59235
-59235
-59236
-59235
-59233
-59230
-59232
-59232
-59233
-59232
-59229
-59230
-59236
-59237
-59235
-59236
-59229
-59233
-59235
-59227
-59236
-59236
-59232
-59232
-59236
-59230
-59231
-59230
-59240
-59232
-59232
-59232
-59242
-59235
-59234
-59238
-59233
-59235
-59236
-59234
-59233
-59234
-59229
-59235
-59236
-59227
-59238
-59235
-59236
-59236
-59244
-59238
-59238
-59239
-59239
-59235
-59245
-59236
-59236
-59239
-59236
-59236
-59240
-59236
-59240
-59239
-59243
-59239
-59239
-59237
-59241
-59239
-59242
-59234
-59236
-59239
-59241
-59243
-59240
-59237
-59235
-59236
-59243
-59242
-59244
-59241
-59237
-59239
-59244
-59243
-59240
-59241
-59245
-59246
-59243
-59244
-59239
-59246
-59244
-59244
-59242
-59250
-59245
-59237
-59244
-59249
-59244
-59247
-59244
-59246
-59244
-59247
-59240
-59244
-59245
-59248
-59246
-59243
-59246
-59242
-59245
-59245
-59245
-59240
-59242
-59243
-59243
-59241
-59245
-59242
-59240
-59242
-59242
-59243
-59241
-59245
-59245
-59246
-59246
-59244
-59248
-59244
-59250
-59250
-59253
-59245
-59250
-59246
-59250
-59255
-59246
-59249
-59245
-59248
-59249
-59248
-59252
-59250
-59242
-59249
-59252
-59248
-59245
-59247
-59249
-59247
-59249
-59248
-59243
-59250
-59251
-59248
-59246
-59252
-59249
-59248
-59248
-59250
-59247
-59251
-59249
-59253
-59252
-59252
-59248
-59247
-59253
-59252
-59254
-59252
-59249
-59257
-59257
-59250
-59250
-59250
-59246
-59248
-59250
-59246
-59252
-59252
-59253
-59250
-59252
-59253
-59250
-59252
-59255
-59251
-59254
-59256
-59255
-59253
-59255
-59253
-59250
-59255
-59251
-59253
-59252
-59257
-59255
-59249
-59253
-59252
-59252
-59257
-59254
-59258
-59256
-59259
-59256
-59256
-59252
-59251
-59248
-59256
-59254
-59257
-59260
-59258
-59254
-59254
-59255
-59256
-59257
-59257
-59255
-59259
-59255
-59253
-59256
-59257
-59258
-59253
-59262
-59258
-59261
-59257
-59251
-59252
-59259
-59255
-59262
-59262
-59258
-59257
-59260
-59263
-59265
-59259
-59262
-59258
-59260
-59259
-59254
-59264
-59257
-59257
-59257
-59260
-59261
-59261
-59257
-59258
-59261
-59261
-59258
-59261
-59258
-59260
-59263
-59263
-59265
-59258
-59267
-59262
-59262
-59262
-59268
-59260
-59268
-59266
-59265
-59263
-59266
-59264
-59269
-59266
-59268
-59260
-59267
-59266
-59266
-59265
-59264
-59268
-59265
-59265
-59265
-59261
-59263
-59264
-59265
-59263
-59262
-59271
-59266
-59267
-59265
-59264
-59270
-59266
-59266
-59261
-59270
-59263
-59266
-59268
-59265
-59263
-59267
-59267
-59272
-59266
-59270
-59266
-59265
-59271
-59267
-59269
-59270
-59267
-59271
-59268
-59266
-59272
-59270
-59265
-59272
-59273
-59270
-59272
-59271
-59272
-59270
-59269
-59271
-59272
-59271
-59268
-59268
-59265
-59268
-59267
-59271
-59271
-59269
-59275
-59273
-59269
-59270
-59275
-59272
-59273
-59274
-59277
-59277
-59272
-59273
-59271
-59271
-59276
-59277
-59275
-59278
-59270
-59277
-59275
-59271
-59275
-59273
-59275
-59280
-59278
-59280
-59276
-59276
-59278
-59278
-59280
-59281
-59271
-59282
-59274
-59281
-59281
-59281
-59274
-59283
-59281
-59279
-59277
-59280
-59276
-59280
-59282
-59281
-59282
-59281
-59286
-59282
-59284
-59288
-59280
-59280
-59279
-59272
-59281
-59280
-59282
-59282
-59284
-59282
-59280
-59282
-59286
-59281
-59283
-59282
-59278
-59285
-59287
-59285
-59273
-59284
-59286
-59282
-59282
-59287
-59277
-59283
-59279
-59284
-59284
-59283
-59284
-59283
-59290
-59288
-59285
-59286
-59286
-59287
-59284
-59281
-59281
-59277
-59284
-59285
-59278
-59286
-59283
-59282
-59284
-59285
-59285
-59281
-59282
-59283
-59285
-59285
-59277
-59282
-59285
-59282
-59280
-59285
-59283
-59281
-59279
-59281
-59283
-59280
-59284
-59277
-59281
-59283
-59281
-59281
-59282
-59280
-59281
-59277
-59283
-59284
-59278
-59269
-59271
-59283
-59272
-59271
-59277
-59272
-59277
-59277
-59274
-59271
-59272
-59276
-59272
-59273
-59272
-59273
-59270
-59275
-59273
-59269
-59273
-59274
-59274
-59268
-59270
-59269
-59268
-59267
-59271
-59265
-59271
-59261
-59265
-59263
-59266
-59262
-59263
-59258
-59264
-59264
-59263
-59264
-59264
-59264
-59265
-59262
-59267
-59263
-59263
-59265
-59261
-59256
-59262
-59257
-59263
-59258
-59257
-59262
-59256
-59259
-59252
-59257
-59259
-59253
-59246
-59254
-59253
-59255
-59253
-59257
-59253
-59250
-59257
-59257
-59256
-59253
-59253
-59254
-59254
-59255
-59253
-59250
-59252
-59250
-59253
-59251
-59251
-59250
-59250
-59253
-59253
-59251
-59252
-59250
-59253
-59247
-59248
-59246
-59249
-59249
-59250
-59250
-59254
-59248
-59246
-59251
-59251
-59250
-59253
-59255
-59257
-59250
-59249
-59250
-59246
-59255
-59252
-59253
-59251
-59250
-59252
-59252
-59245
-59251
-59248
-59255
-59252
-59252
-59250
-59245
-59253
-59253
-59252
-59254
-59254
-59249
-59248
-59251
-59250
-59248
-59250
-59248
-59249
-59257
-59254
-59254
-59253
-59258
-59253
-59251
-59257
-59257
-59260
-59261
-59250
-59250
-59253
-59253
-59252
-59253
-59250
-59252
-59257
-59251
-59255
-59254
-59262
-59255
-59261
-59259
-59257
-59253
-59261
-59261
-59261
-59254
-59258
-59256
-59256
-59258
-59261
-59261
-59256
-59258
-59257
-59258
-59255
-59256
-59262
-59266
-59258
-59261
-59261
-59261
-59261
-59266
-59263
-59264
-59263
-59261
-59267
-59262
-59264
-59264
-59259
-59262
-59262
-59264
-59261
-59262
-59264
-59259
-59266
-59271
-59261
-59262
-59264
-59268
-59266
-59263
-59267
-59265
-59270
-59266
-59269
-59260
-59266
-59266
-59263
-59262
-59271
-59271
-59264
-59270
-59266
-59266
-59271
-59263
-59263
-59270
-59268
-59270
-59271
-59276
-59269
-59270
-59267
-59268
-59271
-59277
-59269
-59260
-59273
-59269
-59270
-59271
-59267
-59272
-59273
-59272
-59267
-59274
-59263
-59269
-59268
-59263
-59267
-59273
-59272
-59273
-59271
-59270
-59271
-59276
-59272
-59271
-59272
-59272
-59276
-59276
-59271
-59271
-59272
-59272
-59270
-59271
-59280
-59277
-59277
-59276
-59275
-59277
-59272
-59268
-59272
-59279
-59274
-59274
-59277
-59275
-59275
-59271
-59274
-59273
-59272
-59280
-59274
-59277
-59285
-59282
-59271
-59271
-59265
-59272
-59273
-59277
-59276
-59273
-59279
-59281
-59279
-59274
-59281
-59275
-59280
-59280
-59277
-59276
-59275
-59282
-59279
-59279
-59274
-59281
-59274
-59278
-59277
-59281
-59274
-59273
-59278
-59284
-59279
-59281
-59280
-59280
-59280
-59282
-59280
-59276
-59275
-59274
-59278
-59278
-59275
-59279
-59280
-59278
-59277
-59282
-59282
-59275
-59278
-59279
-59281
-59275
-59283
-59278
-59278
-59273
-59283
-59275
-59280
-59274
-59277
-59277
-59276
-59282
-59275
-59283
-59279
-59282
-59281
-59274
-59273
-59280
-59278
-59286
-59274
-59283
-59277
-59279
-59276
-59276
-59281
-59281
-59278
-59273
-59269
-59285
-59274
-59280
-59281
-59276
-59281
-59278
-59279
-59282
-59283
-59279
-59279
-59274
-59277
-59279
-59280
-59276
-59277
-59279
-59285
-59277
-59281
-59277
-59279
-59282
-59280
-59272
-59279
-59276
-59285
-59286
-59279
-59284
-59280
-59277
-59282
-59279
-59280
-59277
-59280
-59284
-59274
-59274
-59282
-59285
-59283
-59279
-59283
-59278
-59281
-59278
-59280
-59279
-59283
-59278
-59282
-59282
-59276
-59279
-59281
-59277
-59274
-59279
-59279
-59283
-59281
-59279
-59281
-59282
-59286
-59287
-59283
-59280
-59277
-59285
-59288
-59286
-59281
-59284
-59280
-59283
-59281
-59280
-59284
-59287
-59284
-59284
-59281
-59292
-59284
-59285
-59286
-59287
-59282
-59284
-59281
-59279
-59283
-59282
-59284
-59284
-59283
-59285
-59289
-59282
-59283
-59286
-59284
-59281
-59286
-59280
-59281
-59283
-59287
-59285
-59283
-59287
-59281
-59284
-59285
-59287
-59282
-59281
-59283
-59285
-59286
-59283
-59291
-59284
-59282
-59286
-59282
-59289
-59289
-59292
-59290
-59286
-59283
-59283
-59286
-59287
-59286
-59283
-59286
-59288
-59287
-59287
-59283
-59287
-59283
-59290
-59288
-59282
-59283
-59287
-59288
-59286
-59289
-59289
-59287
-59283
-59288
-59290
-59289
-59280
-59290
-59287
-59287
-59294
-59291
-59288
-59290
-59286
-59287
-59291
-59290
-59286
-59286
-59293
-59289
-59287
-59288
-59287
-59293
-59288
-59294
-59291
-59287
-59290
-59291
-59288
-59288
-59288
-59287
-59287
-59294
-59295
-59288
-59294
-59296
-59286
-59288
-59293
-59294
-59292
-59291
-59291
-59288
-59286
-59285
-59291
-59291
-59291
-59285
-59287
-59294
-59292
-59293
-59289
-59290
-59295
-59291
-59293
-59301
-59296
-59291
-59291
-59289
-59288
-59289
-59287
-59286
-59290
-59292
-59287
-59294
-59291
-59287
-59292
-59292
-59292
-59294
-59291
-59294
-59292
-59289
-59290
-59296
-59293
-59292
-59291
-59297
-59290
-59287
-59293
-59297
-59296
-59295
-59290
-59292
-59290
-59293
-59290
-59296
-59296
-59294
-59296
-59305
-59297
-59299
-59294
-59301
-59296
-59300
-59295
-59292
-59291
-59294
-59292
-59299
-59298
-59297
-59296
-59302
-59295
-59297
-59298
-59294
-59300
-59301
-59299
-59298
-59297
-59292
-59300
-59296
-59303
-59303
-59300
-59301
-59299
-59299
-59294
-59297
-59300
-59299
-59302
-59303
-59299
-59298
-59306
-59300
-59301
-59300
-59298
-59301
-59302
-59307
-59306
-59303
-59302
-59299
-59303
-59303
-59299
-59301
-59305
-59304
-59303
-59305
-59306
-59305
-59308
-59299
-59305
-59306
-59306
-59303
-59305
-59308
-59303
-59304
-59305
-59308
-59303
-59299
-59305
-59300
-59306
-59307
-59303
-59312
-59309
-59298
-59309
-59309
-59303
-59305
-59302
-59305
-59303
-59308
-59312
-59302
-59306
-59306
-59302
-59302
-59309
-59310
-59308
-59305
-59310
-59306
-59309
-59302
-59313
-59305
-59307
-59309
-59307
-59305
-59307
-59308
-59311
-59311
-59309
-59307
-59307
-59311
-59306
-59309
-59306
-59309
-59311
-59310
-59310
-59306
-59310
-59307
-59312
-59310
-59310
-59311
-59311
-59308
-59313
-59310
-59312
-59310
-59314
-59314
-59310
-59308
-59309
-59316
-59312
-59310
-59313
-59315
-59310
-59316
-59316
-59314
-59314
-59309
-59313
-59312
-59318
-59310
-59309
-59312
-59309
-59307
-59312
-59324
-59310
-59313
-59307
-59312
-59316
-59312
-59319
-59317
-59316
-59315
-59314
-59318
-59316
-59315
-59319
-59315
-59316
-59315
-59318
-59313
-59316
-59315
-59315
-59317
-59317
-59317
-59316
-59313
-59314
-59319
-59317
-59315
-59309
-59313
-59315
-59312
-59316
-59316
-59313
-59309
-59312
-59306
-59315
-59316
-59311
-59323
-59306
-59315
-59315
-59313
-59311
-59313
-59307
-59314
-59309
-59313
-59311
-59309
-59309
-59312
-59306
-59314
-59303
-59303
-59307
-59313
-59303
-59302
-59305
-59310
-59309
-59304
-59307
-59301
-59309
-59307
-59311
-59302
-59299
-59307
-59308
-59302
-59300
-59304
-59298
-59305
-59300
-59300
-59302
-59299
-59295
-59301
-59302
-59298
-59305
-59298
-59297
-59290
-59297
-59294
-59297
-59298
-59295
-59299
-59298
-59293
-59295
-59291
-59291
-59293
-59290
-59292
-59290
-59291
-59287
-59292
-59285
-59291
-59281
-59286
-59283
-59288
-59287
-59290
-59286
-59288
-59284
-59289
-59284
-59288
-59288
-59281
-59288
-59281
-59287
-59286
-59280
-59285
-59281
-59285
-59285
-59278
-59280
-59286
-59275
-59283
-59281
-59276
-59280
-59279
-59279
-59279
-59279
-59276
-59278
-59278
-59277
-59277
-59277
-59280
-59277
-59277
-59279
-59277
-59278
-59281
-59275
-59282
-59280
-59276
-59278
-59276
-59276
-59278
-59278
-59281
-59276
-59273
-59278
-59276
-59280
-59282
-59281
-59276
-59277
-59275
-59273
-59276
-59277
-59275
-59276
-59278
-59284
-59277
-59272
-59271
-59273
-59274
-59276
-59269
-59276
-59274
-59277
-59275
-59276
-59271
-59275
-59274
-59280
-59279
-59277
-59273
-59274
-59273
-59276
-59273
-59275
-59277
-59269
-59277
-59271
-59278
-59273
-59278
-59274
-59280
-59276
-59278
-59275
-59272
-59277
-59272
-59275
-59275
-59273
-59275
-59281
-59271
-59276
-59277
-59279
-59282
-59275
-59274
-59277
-59276
-59280
-59284
-59280
-59279
-59284
-59286
-59278
-59286
-59280
-59276
-59277
-59276
-59281
-59279
-59278
-59286
-59278
-59283
-59282
-59280
-59285
-59285
-59282
-59284
-59281
-59284
-59283
-59284
-59284
-59284
-59283
-59290
-59282
-59283
-59281
-59286
-59282
-59285
-59282
-59283
-59290
-59282
-59281
-59286
-59284
-59281
-59283
-59277
-59285
-59283
-59287
-59286
-59289
-59284
-59285
-59288
-59288
-59287
-59290
-59287
-59286
-59290
-59293
-59287
-59291
-59289
-59290
-59298
-59288
-59285
-59294
-59292
-59292
-59296
-59286
-59290
-59289
-59290
-59285
-59286
-59289
-59290
-59296
-59295
-59292
-59293
-59296
-59295
-59298
-59290
-59291
-59290
-59295
-59291
-59290
-59286
-59288
-59292
-59288
-59293
-59293
-59291
-59296
-59294
-59296
-59294
-59297
-59293
-59293
-59295
-59298
-59295
-59291
-59291
-59294
-59293
-59293
-59296
-59295
-59292
-59298
-59293
-59292
-59293
-59293
-59298
-59296
-59299
-59297
-59293
-59295
-59293
-59291
-59292
-59290
-59292
-59293
-59293
-59303
-59293
-59292
-59287
-59296
-59298
-59295
-59298
-59290
-59290
-59292
-59292
-59294
-59288
-59290
-59295
-59294
-59295
-59298
-59290
-59293
-59289
-59287
-59294
-59297
-59297
-59295
-59294
-59293
-59296
-59290
-59291
-59292
-59292
-59296
-59293
-59293
-59292
-59285
-59296
-59293
-59293
-59284
-59292
-59295
-59288
-59295
-59292
-59289
-59289
-59290
-59296
-59296
-59293
-59290
-59289
-59290
-59292
-59300
-59292
-59296
-59290
-59290
-59287
-59288
-59293
-59298
-59297
-59291
-59296
-59294
-59297
-59296
-59291
-59291
-59294
-59286
-59292
-59295
-59290
-59292
-59296
-59296
-59289
-59288
-59289
-59295
-59289
-59292
-59293
-59288
-59295
-59293
-59298
-59290
-59292
-59289
-59292
-59293
-59290
-59290
-59295
-59294
-59287
-59289
-59300
-59297
-59293
-59291
-59290
-59293
-59287
-59288
-59293
-59292
-59284
-59289
-59291
-59293
-59289
-59290
-59295
-59292
-59292
-59296
-59288
-59289
-59291
-59290
-59294
-59285
-59291
-59293
-59290
-59296
-59287
-59297
-59293
-59297
-59292
-59287
-59288
-59293
-59290
-59293
-59293
-59289
-59297
-59292
-59296
-59293
-59295
-59288
-59295
-59291
-59299
-59290
-59296
-59298
-59293
-59299
-59292
-59295
-59292
-59294
-59291
-59295
-59301
-59301
-59296
-59289
-59293
-59302
-59293
-59292
-59292
-59294
-59296
-59290
-59298
-59290
-59295
-59296
-59296
-59301
-59302
-59293
-59301
-59289
-59298
-59292
-59293
-59300
-59298
-59297
-59302
-59297
-59295
-59294
-59295
-59295
-59293
-59294
-59298
-59297
-59297
-59293
-59296
-59296
-59296
-59296
-59303
-59295
-59299
-59294
-59294
-59296
-59297
-59298
-59297
-59299
-59299
-59295
-59293
-59303
-59292
-59296
-59290
-59295
-59298
-59295
-59298
-59298
-59298
-59299
-59300
-59298
-59295
-59298
-59295
-59297
-59298
-59299
-59300
-59299
-59294
-59296
-59301
-59301
-59295
-59305
-59304
-59300
-59298
-59299
-59301
-59293
-59302
-59302
-59300
-59302
-59302
-59299
-59298
-59299
-59301
-59302
-59297
-59297
-59302
-59303
-59300
-59300
-59290
-59296
-59299
-59298
-59304
-59303
-59303
-59301
-59301
-59302
-59302
-59299
-59297
-59301
-59301
-59299
-59298
-59301
-59300
-59300
-59298
-59301
-59305
-59298
-59301
-59300
-59305
-59299
-59301
-59298
-59303
-59303
-59300
-59298
-59297
-59305
-59300
-59303
-59303
-59304
-59304
-59302
-59306
-59302
-59300
-59302
-59302
-59302
-59302
-59301
-59306
-59295
-59309
-59300
-59308
-59310
-59304
-59307
-59304
-59298
-59299
-59305
-59303
-59305
-59296
-59301
-59305
-59301
-59306
-59301
-59301
-59298
-59301
-59306
-59300
-59300
-59305
-59303
-59297
-59301
-59299
-59301
-59303
-59301
-59299
-59305
-59306
-59304
-59305
-59307
-59307
-59301
-59308
-59306
-59306
-59306
-59305
-59308
-59310
-59305
-59310
-59303
-59308
-59301
-59305
-59309
-59301
-59305
-59305
-59305
-59303
-59308
-59300
-59298
-59304
-59303
-59304
-59306
-59306
-59307
-59300
-59308
-59301
-59307
-59306
-59305
-59308
-59310
-59304
-59311
-59306
-59307
-59304
-59308
-59306
-59306
-59303
-59310
-59305
-59304
-59310
-59305
-59308
-59304
-59312
-59308
-59311
-59308
-59307
-59307
-59308
-59304
-59310
-59310
-59311
-59307
-59306
-59306
-59314
-59306
-59312
-59313
-59308
-59312
-59309
-59309
-59308
-59312
-59314
-59315
-59311
-59311
-59311
-59306
-59307
-59312
-59312
-59305
-59311
-59307
-59314
-59314
-59308
-59311
-59313
-59309
-59310
-59308
-59306
-59316
-59316
-59311
-59308
-59311
-59307
-59310
-59309
-59315
-59314
-59314
-59315
-59319
-59312
-59310
-59312
-59312
-59310
-59313
-59314
-59313
-59309
-59309
-59315
-59311
-59310
-59315
-59309
-59309
-59314
-59312
-59311
-59307
-59312
-59312
-59316
-59314
-59312
-59314
-59319
-59315
-59318
-59313
-59313
-59315
-59320
-59314
-59314
-59322
-59319
-59315
-59312
-59310
-59319
-59315
-59317
-59315
-59319
-59312
-59313
-59319
-59312
-59318
-59316
-59319
-59321
-59318
-59320
-59318
-59318
-59313
-59317
-59319
-59320
-59320
-59323
-59317
-59323
-59319
-59323
-59319
-59316
-59315
-59319
-59319
-59318
-59316
-59318
-59322
-59317
-59316
-59317
-59319
-59322
-59322
-59323
-59319
-59319
-59322
-59323
-59320
-59322
-59316
-59322
-59320
-59318
-59326
-59316
-59326
-59320
-59317
-59319
-59324
-59312
-59327
-59324
-59322
-59325
-59319
-59321
-59325
-59326
-59315
-59321
-59319
-59317
-59316
-59321
-59320
-59316
-59323
-59312
-59315
-59315
-59315
-59322
-59320
-59319
-59315
-59322
-59319
-59319
-59321
-59318
-59322
-59322
-59320
-59324
-59321
-59311
-59319
-59313
-59315
-59320
-59317
-59316
-59318
-59319
-59320
-59314
-59311
-59318
-59318
-59316
-59320
-59313
-59311
-59314
-59320
-59316
-59312
-59313
-59315
-59318
-59310
-59308
-59312
-59310
-59310
-59310
-59310
-59310
-59312
-59309
-59310
-59308
-59303
-59311
-59307
-59306
-59308
-59306
-59301
-59308
-59300
-59299
-59304
-59302
-59309
-59294
-59301
-59302
-59301
-59306
-59301
-59298
-59294
-59299
-59296
-59303
-59293
-59297
-59299
-59293
-59297
-59292
-59290
-59295
-59295
-59293
-59294
-59295
-59290
-59292
-59297
-59290
-59289
-59293
-59290
-59290
-59288
-59287
-59286
-59285
-59284
-59287
-59283
-59285
-59282
-59279
-59276
-59283
-59281
-59284
-59288
-59280
-59283
-59278
-59282
-59285
-59277
-59284
-59278
-59280
-59278
-59277
-59278
-59276
-59280
-59274
-59278
-59276
-59276
-59276
-59275
-59277
-59273
-59270
-59277
-59270
-59276
-59277
-59272
-59274
-59271
-59272
-59276
-59276
-59264
-59272
-59269
-59273
-59272
-59271
-59272
-59271
-59271
-59275
-59270
-59269
-59267
-59272
-59267
-59270
-59271
-59269
-59270
-59269
-59267
-59270
-59266
-59267
-59261
-59263
-59263
-59264
-59264
-59262
-59262
-59267
-59266
-59265
-59259
-59265
-59268
-59267
-59269
-59267
-59265
-59265
-59267
-59260
-59263
-59260
-59263
-59267
-59264
-59264
-59265
-59263
-59263
-59263
-59265
-59264
-59272
-59263
-59266
-59264
-59266
-59264
-59263
-59265
-59266
-59262
-59267
-59261
-59268
-59268
-59271
-59263
-59265
-59263
-59260
-59266
-59262
-59260
-59265
-59264
-59265
-59261
-59261
-59267
-59261
-59267
-59272
-59264
-59263
-59263
-59269
-59265
-59267
-59267
-59266
-59262
-59269
-59269
-59274
-59268
-59268
-59270
-59264
-59266
-59270
-59266
-59270
-59267
-59268
-59267
-59266
-59269
-59266
-59269
-59272
-59263
-59262
-59263
-59262
-59266
-59267
-59265
-59266
-59268
-59263
-59266
-59274
-59267
-59270
-59267
-59270
-59266
-59263
-59271
-59267
-59265
-59268
-59273
-59267
-59268
-59270
-59269
-59269
-59272
-59272
-59273
-59268
-59270
-59271
-59273
-59266
-59269
-59268
-59274
-59275
-59271
-59274
-59268
-59276
-59271
-59268
-59268
-59268
-59272
-59271
-59277
-59273
-59274
-59271
-59274
-59273
-59271
-59273
-59268
-59278
-59275
-59278
-59272
-59269
-59272
-59272
-59272
-59270
-59273
-59271
-59272
-59270
-59271
-59273
-59274
-59275
-59271
-59270
-59275
-59272
-59279
-59275
-59272
-59269
-59271
-59276
-59271
-59273
-59276
-59271
-59275
-59279
-59274
-59270
-59271
-59278
-59272
-59278
-59272
-59270
-59263
-59274
-59280
-59269
-59277
-59270
-59275
-59268
-59272
-59273
-59270
-59271
-59273
-59278
-59274
-59274
-59268
-59276
-59272
-59272
-59271
-59276
-59275
-59274
-59272
-59274
-59279
-59269
-59271
-59276
-59271
-59276
-59270
-59272
-59274
-59271
-59271
-59269
-59274
-59272
-59273
-59269
-59275
-59273
-59275
-59271
-59266
-59273
-59275
-59267
-59276
-59273
-59272
-59273
-59267
-59271
-59272
-59269
-59272
-59271
-59275
-59275
-59274
-59277
-59271
-59269
-59270
-59269
-59271
-59273
-59276
-59273
-59271
-59272
-59270
-59269
-59271
-59271
-59272
-59268
-59269
-59272
-59272
-59272
-59271
-59267
-59269
-59268
-59269
-59267
-59270
-59267
-59272
-59275
-59267
-59264
-59272
-59269
-59271
-59269
-59269
-59264
-59270
-59270
-59271
-59274
-59268
-59268
-59269
-59273
-59268
-59270
-59269
-59272
-59273
-59268
-59274
-59273
-59271
-59266
-59268
-59272
-59267
-59267
-59260
-59266
-59267
-59269
-59266
-59267
-59269
-59264
-59269
-59271
-59264
-59262
-59263
-59266
-59268
-59269
-59271
-59270
-59265
-59269
-59266
-59266
-59267
-59269
-59265
-59269
-59264
-59266
-59263
-59264
-59266
-59266
-59268
-59266
-59271
-59270
-59266
-59267
-59266
-59262
-59261
-59265
-59271
-59269
-59262
-59267
-59268
-59266
-59270
-59265
-59272
-59270
-59265
-59266
-59270
-59267
-59269
-59270
-59267
-59272
-59269
-59269
-59269
-59266
-59266
-59269
-59263
-59268
-59267
-59266
-59267
-59265
-59274
-59269
-59273
-59267
-59264
-59270
-59266
-59267
-59267
-59271
-59267
-59268
-59273
-59261
-59269
-59266
-59268
-59268
-59274
-59264
-59269
-59269
-59267
-59269
-59262
-59269
-59259
-59268
-59267
-59266
-59264
-59272
-59268
-59262
-59271
-59264
-59272
-59270
-59268
-59271
-59270
-59270
-59274
-59267
-59268
-59273
-59270
-59268
-59270
-59268
-59267
-59265
-59271
-59274
-59270
-59268
-59273
-59271
-59271
-59267
-59273
-59274
-59268
-59270
-59265
-59268
-59266
-59272
-59269
-59272
-59267
-59274
-59263
-59272
-59268
-59272
-59267
-59265
-59276
-59274
-59271
-59266
-59271
-59268
-59274
-59270
-59269
-59269
-59270
-59268
-59273
-59272
-59267
-59271
-59265
-59269
-59268
-59265
-59274
-59270
-59264
-59275
-59277
-59269
-59274
-59269
-59272
-59276
-59267
-59266
-59267
-59274
-59268
-59265
-59275
-59275
-59270
-59266
-59270
-59268
-59268
-59266
-59270
-59264
-59267
-59264
-59266
-59268
-59266
-59268
-59274
-59267
-59267
-59272
-59272
-59270
-59269
-59266
-59270
-59264
-59265
-59278
-59268
-59268
-59265
-59273
-59267
-59269
-59270
-59272
-59269
-59277
-59272
-59268
-59268
-59270
-59268
-59271
-59269
-59271
-59271
-59271
-59269
-59267
-59274
-59270
-59270
-59263
-59267
-59273
-59262
-59268
-59273
-59263
-59269
-59269
-59270
-59275
-59268
-59271
-59271
-59269
-59264
-59274
-59261
-59268
-59267
-59271
-59267
-59271
-59267
-59270
-59263
-59267
-59271
-59274
-59268
-59266
-59273
-59268
-59273
-59275
-59268
-59264
-59276
-59273
-59268
-59273
-59273
-59273
-59272
-59274
-59271
-59276
-59272
-59271
-59271
-59263
-59272
-59264
-59268
-59268
-59276
-59275
-59272
-59270
-59274
-59269
-59270
-59268
-59279
-59267
-59270
-59273
-59274
-59270
-59275
-59269
-59269
-59278
-59278
-59273
-59268
-59274
-59277
-59270
-59273
-59272
-59277
-59269
-59275
-59273
-59276
-59274
-59271
-59274
-59273
-59272
-59277
-59281
-59278
-59275
-59272
-59273
-59279
-59270
-59277
-59275
-59274
-59279
-59274
-59272
-59277
-59272
-59271
-59281
-59274
-59271
-59272
-59275
-59276
-59276
-59276
-59275
-59271
-59275
-59280
-59271
-59270
-59274
-59276
-59273
-59275
-59279
-59275
-59275
-59276
-59275
-59274
-59268
-59273
-59278
-59274
-59277
-59272
-59274
-59275
-59275
-59274
-59280
-59280
-59276
-59275
-59270
-59272
-59274
-59279
-59278
-59274
-59277
-59276
-59281
-59274
-59277
-59280
-59277
-59276
-59274
-59274
-59273
-59278
-59280
-59276
-59277
-59274
-59279
-59275
-59276
-59276
-59279
-59278
-59277
-59282
-59277
-59281
-59278
-59278
-59276
-59279
-59278
-59275
-59280
-59270
-59275
-59280
-59278
-59278
-59275
-59279
-59272
-59277
-59281
-59283
-59278
-59280
-59280
-59273
-59279
-59279
-59279
-59285
-59281
-59283
-59278
-59280
-59283
-59278
-59282
-59281
-59279
-59275
-59285
-59280
-59272
-59284
-59279
-59280
-59279
-59278
-59283
-59279
-59281
-59279
-59280
-59281
-59278
-59276
-59279
-59280
-59280
-59278
-59279
-59281
-59279
-59279
-59288
-59285
-59283
-59281
-59287
-59284
-59284
-59279
-59280
-59285
-59284
-59277
-59280
-59282
-59282
-59284
-59283
-59282
-59289
-59278
-59279
-59281
-59281
-59282
-59278
-59283
-59281
-59281
-59281
-59283
-59289
-59283
-59280
-59285
-59279
-59286
-59285
-59285
-59281
-59281
-59278
-59282
-59280
-59280
-59284
-59288
-59282
-59279
-59279
-59282
-59276
-59285
-59277
-59281
-59286
-59283
-59281
-59285
-59278
-59280
-59282
-59286
-59280
-59283
-59279
-59283
-59281
-59277
-59280
-59283
-59279
-59278
-59280
-59280
-59284
-59278
-59273
-59280
-59276
-59275
-59277
-59275
-59278
-59278
-59274
-59274
-59273
-59272
-59273
-59275
-59277
-59272
-59278
-59270
-59272
-59278
-59276
-59271
-59265
-59272
-59268
-59270
-59270
-59267
-59263
-59263
-59263
-59263
-59263
-59266
-59266
-59267
-59264
-59266
-59261
-59261
-59259
-59261
-59259
-59261
-59256
-59258
-59253
-59257
-59251
-59254
-59255
-59256
-59251
-59253
-59257
-59257
-59252
-59252
-59252
-59252
-59250
-59246
-59254
-59247
-59247
-59246
-59246
-59246
-59245
-59240
-59238
-59241
-59247
-59245
-59243
-59242
-59241
-59238
-59235
-59239
-59235
-59237
-59242
-59232
-59235
-59233
-59238
-59236
-59239
-59238
-59229
-59233
-59229
-59232
-59228
-59235
-59228
-59228
-59226
-59227
-59224
-59230
-59223
-59228
-59229
-59225
-59223
-59226
-59225
-59225
-59222
-59224
-59222
-59222
-59229
-59227
-59221
-59218
-59219
-59216
-59220
-59211
-59217
-59220
-59221
-59215
-59218
-59225
-59218
-59215
-59220
-59222
-59218
-59215
-59215
-59222
-59219
-59219
-59212
-59212
-59218
-59213
-59215
-59212
-59216
-59214
-59214
-59216
-59212
-59214
-59206
-59211
-59207
-59209
-59215
-59211
-59210
-59211
-59206
-59213
-59209
-59208
-59213
-59210
-59209
-59212
-59212
-59213
-59207
-59204
-59207
-59208
-59204
-59213
-59210
-59212
-59213
-59204
-59212
-59206
-59203
-59201
-59205
-59206
-59205
-59211
-59206
-59203
-59210
-59204
-59203
-59209
-59211
-59206
-59207
-59209
-59206
-59208
-59207
-59204
-59208
-59210
-59209
-59207
-59208
-59203
-59207
-59204
-59208
-59203
-59210
-59206
-59208
-59211
-59213
-59209
-59213
-59209
-59207
-59206
-59202
-59208
-59206
-59210
-59207
-59209
-59206
-59207
-59205
-59208
-59209
-59208
-59206
-59215
-59205
-59205
-59203
-59209
-59210
-59211
-59206
-59214
-59208
-59205
-59206
-59212
-59211
-59212
-59211
-59215
-59213
-59208
-59209
-59209
-59216
-59210
-59210
-59202
-59208
-59208
-59212
-59208
-59210
-59212
-59208
-59220
-59211
-59207
-59209
-59207
-59205
-59207
-59208
-59220
-59211
-59214
-59211
-59215
-59210
-59214
-59214
-59214
-59217
-59214
-59213
-59212
-59215
-59214
-59217
-59204
-59212
-59211
-59215
-59210
-59213
-59209
-59212
-59208
-59212
-59217
-59216
-59214
-59212
-59211
-59212
-59220
-59212
-59215
-59210
-59215
-59211
-59213
-59214
-59211
-59209
-59214
-59211
-59210
-59208
-59213
-59214
-59214
-59214
-59211
-59208
-59214
-59209
-59211
-59212
-59212
-59213
-59212
-59210
-59210
-59214
-59213
-59212
-59214
-59212
-59213
-59215
-59213
-59212
-59204
-59212
-59220
-59211
-59218
-59213
-59212
-59216
-59214
-59209
-59212
-59207
-59210
-59214
-59217
-59214
-59212
-59206
-59206
-59206
-59207
-59210
-59215
-59211
-59209
-59212
-59207
-59206
-59210
-59213
-59210
-59212
-59207
-59208
-59207
-59209
-59214
-59211
-59211
-59212
-59207
-59207
-59214
-59213
-59213
-59212
-59212
-59210
-59209
-59214
-59214
-59210
-59208
-59207
-59209
-59210
-59211
-59204
-59204
-59205
-59211
-59210
-59208
-59209
-59210
-59202
-59204
-59208
-59207
-59207
-59208
-59210
-59204
-59206
-59208
-59210
-59205
-59204
-59210
-59209
-59203
-59205
-59204
-59203
-59208
-59198
-59206
-59203
-59206
-59202
-59201
-59202
-59206
-59205
-59202
-59204
-59203
-59203
-59206
-59203
-59202
-59204
-59208
-59202
-59204
-59200
-59202
-59201
-59200
-59203
-59198
-59203
-59201
-59203
-59199
-59205
-59202
-59203
-59207
-59202
-59200
-59203
-59205
-59199
-59206
-59202
-59206
-59206
-59205
-59204
-59203
-59196
-59203
-59199
-59204
-59200
-59206
-59204
-59197
-59205
-59200
-59202
-59203
-59205
-59200
-59202
-59206
-59201
-59203
-59206
-59200
-59203
-59200
-59203
-59199
-59201
-59202
-59204
-59199
-59199
-59198
-59197
-59205
-59204
-59201
-59201
-59198
-59200
-59204
-59201
-59206
-59206
-59200
-59200
-59199
-59205
-59202
-59202
-59200
-59202
-59204
-59200
-59201
-59200
-59203
-59203
-59197
-59203
-59202
-59199
-59209
-59197
-59202
-59202
-59201
-59200
-59203
-59197
-59198
-59194
-59201
-59202
-59206
-59205
-59200
-59199
-59198
-59199
-59199
-59198
-59201
-59198
-59206
-59196
-59196
-59197
-59206
-59206
-59200
-59200
-59204
-59197
-59201
-59200
-59206
-59202
-59205
-59201
-59202
-59207
-59204
-59195
-59195
-59196
-59197
-59197
-59201
-59197
-59202
-59199
-59203
-59203
-59198
-59200
-59203
-59201
-59202
-59197
-59200
-59199
-59199
-59199
-59203
-59201
-59199
-59207
-59197
-59204
-59201
-59204
-59197
-59199
-59198
-59198
-59204
-59200
-59199
-59202
-59203
-59208
-59203
-59203
-59199
-59199
-59205
-59203
-59205
-59207
-59215
-59202
-59206
-59202
-59203
-59204
-59199
-59195
-59199
-59205
-59202
-59201
-59204
-59198
-59204
-59199
-59205
-59205
-59204
-59204
-59200
-59206
-59200
-59206
-59197
-59203
-59201
-59207
-59200
-59208
-59200
-59205
-59197
-59198
-59205
-59205
-59208
-59204
-59202
-59206
-59202
-59202
-59204
-59205
-59211
-59199
-59204
-59205
-59206
-59205
-59207
-59204
-59207
-59207
-59200
-59207
-59209
-59204
-59204
-59201
-59209
-59207
-59200
-59199
-59201
-59203
-59202
-59204
-59203
-59206
-59205
-59208
-59203
-59200
-59202
-59207
-59202
-59201
-59202
-59209
-59200
-59203
-59204
-59205
-59205
-59208
-59201
-59198
-59202
-59206
-59207
-59201
-59206
-59203
-59210
-59202
-59202
-59204
-59204
-59207
-59202
-59210
-59199
-59211
-59205
-59203
-59211
-59211
-59208
-59202
-59203
-59209
-59197
-59205
-59205
-59202
-59210
-59208
-59200
-59207
-59208
-59206
-59209
-59208
-59209
-59209
-59206
-59203
-59204
-59206
-59208
-59209
-59209
-59204
-59209
-59207
-59201
-59213
-59205
-59208
-59206
-59201
-59199
-59205
-59204
-59206
-59203
-59207
-59202
-59199
-59206
-59209
-59207
-59205
-59208
-59207
-59208
-59203
-59208
-59205
-59207
-59205
-59206
-59201
-59206
-59202
-59203
-59208
-59205
-59203
-59208
-59205
-59212
-59211
-59209
-59208
-59203
-59210
-59208
-59208
-59211
-59209
-59212
-59208
-59206
-59206
-59204
-59210
-59209
-59204
-59210
-59201
-59213
-59213
-59204
-59202
-59209
-59210
-59213
-59208
-59213
-59213
-59208
-59206
-59208
-59208
-59212
-59207
-59205
-59207
-59211
-59210
-59209
-59209
-59208
-59206
-59208
-59211
-59214
-59213
-59206
-59209
-59208
-59208
-59213
-59208
-59207
-59208
-59209
-59212
-59212
-59217
-59203
-59210
-59202
-59213
-59208
-59209
-59211
-59210
-59211
-59212
-59207
-59205
-59208
-59211
-59211
-59208
-59210
-59210
-59207
-59211
-59200
-59216
-59208
-59212
-59213
-59217
-59214
-59209
-59217
-59209
-59210
-59218
-59208
-59212
-59218
-59209
-59216
-59204
-59209
-59212
-59211
-59212
-59214
-59215
-59210
-59209
-59214
-59211
-59206
-59212
-59216
-59216
-59207
-59215
-59215
-59212
-59210
-59211
-59217
-59212
-59211
-59209
-59216
-59215
-59205
-59211
-59212
-59209
-59211
-59216
-59219
-59213
-59224
-59212
-59220
-59214
-59216
-59210
-59212
-59208
-59209
-59214
-59210
-59215
-59212
-59215
-59215
-59215
-59212
-59214
-59213
-59215
-59216
-59215
-59213
-59212
-59217
-59216
-59210
-59211
-59214
-59215
-59213
-59212
-59215
-59204
-59215
-59212
-59214
-59210
-59214
-59214
-59210
-59207
-59210
-59208
-59206
-59213
-59208
-59208
-59214
-59214
-59209
-59209
-59215
-59211
-59211
-59214
-59210
-59210
-59208
-59214
-59212
-59207
-59212
-59210
-59208
-59211
-59210
-59205
-59204
-59209
-59210
-59207
-59210
-59208
-59200
-59208
-59204
-59204
-59209
-59205
-59200
-59203
-59203
-59200
-59198
-59199
-59203
-59199
-59200
-59201
-59203
-59199
-59198
-59204
-59200
-59195
-59203
-59196
-59192
-59195
-59201
-59193
-59195
-59198
-59189
-59191
-59187
-59189
-59183
-59189
-59185
-59194
-59188
-59192
-59188
-59188
-59186
-59186
-59186
-59185
-59178
-59184
-59184
-59182
-59175
-59178
-59180
-59178
-59180
-59176
-59180
-59176
-59177
-59173
-59175
-59170
-59168
-59174
-59173
-59169
-59170
-59168
-59169
-59165
-59169
-59163
-59167
-59159
-59167
-59162
-59162
-59163
-59155
-59167
-59158
-59155
-59158
-59157
-59159
-59162
-59150
-59155
-59155
-59155
-59154
-59151
-59155
-59146
-59153
-59153
-59153
-59147
-59149
-59153
-59153
-59149
-59151
-59148
-59148
-59149
-59144
-59144
-59144
-59140
-59146
-59146
-59149
-59148
-59146
-59146
-59148
-59145
-59145
-59140
-59142
-59141
-59139
-59139
-59136
-59142
-59142
-59138
-59139
-59138
-59139
-59136
-59141
-59142
-59135
-59138
-59141
-59137
-59132
-59138
-59139
-59136
-59141
-59131
-59137
-59138
-59133
-59138
-59136
-59140
-59135
-59133
-59137
-59130
-59133
-59134
-59136
-59132
-59134
-59137
-59135
-59132
-59132
-59129
-59129
-59129
-59136
-59132
-59133
-59132
-59132
-59137
-59126
-59128
-59132
-59131
-59131
-59137
-59129
-59136
-59127
-59127
-59131
-59133
-59130
-59136
-59128
-59130
-59132
-59135
-59131
-59137
-59124
-59130
-59134
-59131
-59133
-59130
-59127
-59134
-59133
-59130
-59130
-59133
-59136
-59131
-59136
-59130
-59135
-59131
-59134
-59138
-59131
-59136
-59129
-59132
-59138
-59135
-59130
-59133
-59132
-59136
-59127
-59133
-59135
-59134
-59134
-59132
-59138
-59135
-59137
-59135
-59130
-59132
-59134
-59132
-59136
-59132
-59136
-59135
-59140
-59137
-59132
-59135
-59137
-59137
-59137
-59139
-59139
-59136
-59139
-59139
-59139
-59134
-59130
-59134
-59133
-59140
-59136
-59139
-59138
-59136
-59135
-59135
-59137
-59140
-59140
-59139
-59140
-59139
-59134
-59137
-59136
-59139
-59142
-59136
-59145
-59139
-59139
-59138
-59142
-59138
-59140
-59139
-59141
-59136
-59134
-59140
-59140
-59141
-59141
-59143
-59142
-59140
-59143
-59139
-59140
-59139
-59135
-59141
-59134
-59133
-59146
-59137
-59142
-59132
-59143
-59137
-59141
-59137
-59142
-59134
-59137
-59138
-59138
-59143
-59144
-59140
-59137
-59140
-59140
-59133
-59142
-59143
-59136
-59143
-59143
-59136
-59134
-59137
-59141
-59141
-59142
-59137
-59138
-59145
-59138
-59143
-59142
-59142
-59140
-59141
-59137
-59139
-59136
-59141
-59144
-59144
-59136
-59137
-59139
-59138
-59142
-59134
-59139
-59139
-59143
-59136
-59132
-59140
-59134
-59137
-59142
-59143
-59141
-59139
-59140
-59137
-59137
-59138
-59139
-59131
-59136
-59134
-59137
-59135
-59137
-59138
-59140
-59140
-59135
-59140
-59130
-59134
-59137
-59137
-59135
-59140
-59138
-59134
-59142
-59138
-59139
-59136
-59136
-59137
-59134
-59134
-59135
-59137
-59132
-59134
-59133
-59137
-59132
-59130
-59133
-59128
-59132
-59132
-59130
-59132
-59137
-59138
-59128
-59137
-59134
-59127
-59135
-59128
-59127
-59128
-59133
-59127
-59129
-59132
-59129
-59128
-59134
-59131
-59130
-59136
-59130
-59134
-59132
-59134
-59135
-59132
-59134
-59132
-59136
-59134
-59134
-59132
-59136
-59134
-59137
-59139
-59134
-59131
-59130
-59129
-59128
-59126
-59134
-59133
-59127
-59132
-59130
-59131
-59124
-59135
-59131
-59125
-59133
-59135
-59131
-59131
-59133
-59129
-59132
-59129
-59131
-59128
-59140
-59128
-59129
-59130
-59128
-59130
-59129
-59131
-59128
-59130
-59131
-59127
-59129
-59133
-59129
-59127
-59131
-59127
-59128
-59131
-59127
-59135
-59131
-59128
-59133
-59135
-59129
-59131
-59131
-59126
-59128
-59132
-59126
-59123
-59129
-59121
-59131
-59131
-59127
-59128
-59127
-59130
-59128
-59125
-59125
-59132
-59129
-59125
-59130
-59122
-59133
-59130
-59131
-59129
-59128
-59133
-59128
-59136
-59127
-59131
-59128
-59129
-59132
-59132
-59126
-59124
-59134
-59132
-59128
-59130
-59123
-59130
-59131
-59131
-59132
-59127
-59132
-59134
-59122
-59128
-59133
-59129
-59124
-59128
-59132
-59133
-59126
-59124
-59125
-59128
-59126
-59128
-59130
-59128
-59125
-59130
-59132
-59131
-59129
-59133
-59132
-59127
-59129
-59131
-59130
-59134
-59128
-59136
-59134
-59131
-59129
-59128
-59129
-59125
-59133
-59127
-59130
-59128
-59126
-59132
-59131
-59133
-59136
-59130
-59124
-59127
-59138
-59129
-59127
-59132
-59133
-59130
-59131
-59131
-59138
-59132
-59128
-59128
-59127
-59132
-59138
-59131
-59130
-59125
-59125
-59130
-59130
-59130
-59125
-59132
-59126
-59132
-59127
-59129
-59129
-59126
-59128
-59133
-59124
-59125
-59137
-59132
-59127
-59130
-59132
-59135
-59129
-59132
-59128
-59132
-59137
-59132
-59134
-59129
-59133
-59135
-59133
-59132
-59132
-59128
-59132
-59129
-59136
-59135
-59131
-59134
-59137
-59133
-59132
-59133
-59132
-59133
-59138
-59132
-59135
-59131
-59133
-59130
-59130
-59130
-59134
-59132
-59133
-59131
-59132
-59132
-59132
-59134
-59134
-59130
-59130
-59129
-59133
-59131
-59135
-59131
-59134
-59131
-59128
-59131
-59139
-59137
-59135
-59134
-59136
-59134
-59134
-59136
-59132
-59132
-59134
-59129
-59131
-59133
-59135
-59139
-59133
-59132
-59135
-59137
-59134
-59133
-59133
-59133
-59135
-59134
-59134
-59133
-59133
-59137
-59131
-59134
-59132
-59134
-59133
-59131
-59132
-59141
-59138
-59139
-59129
-59134
-59129
-59138
-59132
-59138
-59139
-59135
-59133
-59135
-59139
-59132
-59136
-59139
-59133
-59133
-59139
-59137
-59138
-59134
-59137
-59137
-59137
-59138
-59135
-59138
-59132
-59136
-59137
-59134
-59136
-59139
-59134
-59137
-59130
-59134
-59138
-59134
-59139
-59137
-59137
-59135
-59132
-59137
-59140
-59141
-59141
-59139
-59136
-59140
-59136
-59134
-59138
-59138
-59131
-59136
-59135
-59133
-59140
-59137
-59138
-59137
-59139
-59138
-59138
-59136
-59138
-59141
-59143
-59136
-59141
-59142
-59142
-59141
-59142
-59134
-59133
-59138
-59138
-59135
-59139
-59137
-59137
-59141
-59143
-59138
-59146
-59144
-59141
-59141
-59138
-59137
-59140
-59140
-59145
-59143
-59144
-59138
-59142
-59143
-59138
-59144
-59142
-59142
-59148
-59145
-59140
-59137
-59142
-59146
-59142
-59144
-59144
-59140
-59142
-59142
-59140
-59144
-59140
-59146
-59148
-59144
-59143
-59142
-59143
-59143
-59148
-59145
-59146
-59150
-59147
-59147
-59145
-59149
-59147
-59147
-59146
-59145
-59144
-59153
-59148
-59140
-59142
-59146
-59145
-59150
-59144
-59147
-59148
-59143
-59146
-59147
-59149
-59147
-59149
-59151
-59150
-59146
-59154
-59147
-59144
-59150
-59148
-59150
-59147
-59147
-59147
-59156
-59145
-59147
-59148
-59148
-59147
-59146
-59142
-59147
-59151
-59146
-59141
-59148
-59147
-59147
-59147
-59141
-59143
-59140
-59143
-59146
-59146
-59142
-59141
-59143
-59140
-59144
-59141
-59142
-59144
-59143
-59139
-59139
-59144
-59138
-59139
-59134
-59137
-59129
-59133
-59133
-59136
-59135
-59136
-59135
-59134
-59134
-59130
-59130
-59134
-59132
-59133
-59130
-59131
-59129
-59126
-59126
-59127
-59131
-59129
-59123
-59126
-59117
-59119
-59119
-59124
-59118
-59119
-59124
-59119
-59118
-59120
-59118
-59113
-59118
-59113
-59113
-59117
-59112
-59116
-59114
-59109
-59118
-59110
-59114
-59113
-59110
-59112
-59111
-59103
-59107
-59104
-59100
-59110
-59103
-59094
-59103
-59101
-59099
-59098
-59101
-59100
-59099
-59097
-59100
-59093
-59092
-59093
-59093
-59098
-59097
-59088
-59094
-59093
-59085
-59092
-59091
-59084
-59084
-59089
-59092
-59084
-59086
-59081
-59083
-59081
-59086
-59082
-59082
-59081
-59081
-59080
-59081
-59081
-59075
-59083
-59085
-59082
-59083
-59080
-59074
-59080
-59076
-59077
-59072
-59077
-59075
-59079
-59079
-59074
-59074
-59075
-59069
-59076
-59068
-59076
-59076
-59067
-59073
-59070
-59076
-59073
-59071
-59067
-59072
-59070
-59073
-59073
-59067
-59070
-59070
-59072
-59067
-59065
-59066
-59071
-59069
-59064
-59067
-59071
-59068
-59069
-59067
-59070
-59065
-59064
-59059
-59067
-59065
-59072
-59062
-59065
-59064
-59064
-59063
-59065
-59063
-59072
-59072
-59068
-59067
-59072
-59064
-59073
-59067
-59066
-59065
-59065
-59068
-59069
-59069
-59064
-59067
-59064
-59067
-59067
-59064
-59064
-59065
-59068
-59063
-59067
-59069
-59067
-59067
-59065
-59066
-59062
-59067
-59068
-59066
-59065
-59071
-59072
-59067
-59076
-59069
-59067
-59068
-59071
-59070
-59069
-59068
-59067
-59071
-59069
-59069
-59073
-59070
-59069
-59071
-59069
-59068
-59072
-59066
-59066
-59068
-59071
-59067
-59069
-59075
-59067
-59074
-59066
-59073
-59071
-59072
-59073
-59074
-59074
-59074
-59074
-59067
-59074
-59075
-59070
-59074
-59071
-59078
-59070
-59074
-59071
-59074
-59072
-59068
-59072
-59074
-59075
-59077
-59075
-59071
-59074
-59074
-59073
-59073
-59070
-59077
-59077
-59079
-59077
-59075
-59071
-59075
-59076
-59070
-59081
-59078
-59077
-59070
-59073
-59072
-59075
-59075
-59078
-59075
-59082
-59072
-59077
-59080
-59074
-59076
-59077
-59076
-59081
-59078
-59072
-59076
-59076
-59073
-59081
-59068
-59072
-59077
-59080
-59078
-59083
-59077
-59078
-59077
-59085
-59075
-59075
-59080
-59079
-59078
-59077
-59079
-59077
-59082
-59078
-59078
-59076
-59076
-59075
-59079
-59074
-59078
-59076
-59070
-59085
-59084
-59076
-59077
-59081
-59074
-59076
-59080
-59078
-59077
-59080
-59079
-59084
-59076
-59073
-59079
-59079
-59073
-59075
-59080
-59077
-59072
-59079
-59069
-59075
-59073
-59079
-59074
-59082
-59077
-59074
-59075
-59075
-59075
-59075
-59073
-59073
-59074
-59079
-59079
-59080
-59077
-59076
-59074
-59079
-59076
-59071
-59077
-59073
-59076
-59077
-59073
-59075
-59073
-59075
-59069
-59075
-59076
-59074
-59075
-59074
-59074
-59081
-59076
-59080
-59073
-59078
-59074
-59077
-59077
-59075
-59073
-59078
-59072
-59073
-59073
-59077
-59070
-59073
-59073
-59075
-59076
-59071
-59078
-59074
-59074
-59071
-59070
-59076
-59075
-59076
-59073
-59074
-59072
-59069
-59071
-59071
-59072
-59071
-59070
-59069
-59079
-59072
-59074
-59076
-59076
-59073
-59074
-59072
-59072
-59079
-59072
-59067
-59078
-59074
-59080
-59071
-59074
-59073
-59073
-59078
-59075
-59074
-59075
-59073
-59073
-59077
-59072
-59073
-59070
-59074
-59070
-59072
-59070
-59071
-59074
-59071
-59068
-59073
-59067
-59070
-59069
-59073
-59072
-59074
-59080
-59072
-59078
-59074
-59074
-59075
-59075
-59071
-59073
-59073
-59074
-59077
-59071
-59076
-59073
-59076
-59073
-59073
-59072
-59076
-59075
-59072
-59074
-59075
-59074
-59077
-59071
-59073
-59074
-59073
-59075
-59070
-59070
-59075
-59077
-59073
-59074
-59074
-59075
-59076
-59076
-59078
-59079
-59075
-59070
-59072
-59076
-59076
-59075
-59071
-59072
-59074
-59074
-59073
-59069
-59074
-59071
-59067
-59072
-59074
-59078
-59079
-59072
-59073
-59072
-59073
-59074
-59073
-59068
-59070
-59079
-59071
-59076
-59080
-59070
-59072
-59073
-59075
-59074
-59078
-59079
-59074
-59074
-59079
-59077
-59071
-59077
-59074
-59072
-59068
-59073
-59077
-59075
-59077
-59076
-59077
-59072
-59079
-59078
-59081
-59076
-59073
-59078
-59083
-59077
-59077
-59074
-59082
-59081
-59073
-59079
-59080
-59078
-59076
-59082
-59085
-59076
-59078
-59077
-59077
-59076
-59079
-59078
-59074
-59077
-59075
-59083
-59082
-59074
-59076
-59079
-59078
-59079
-59080
-59080
-59080
-59077
-59076
-59074
-59082
-59080
-59073
-59081
-59075
-59079
-59076
-59079
-59078
-59082
-59077
-59074
-59078
-59079
-59074
-59083
-59078
-59081
-59084
-59081
-59080
-59083
-59075
-59082
-59084
-59081
-59081
-59079
-59081
-59078
-59082
-59083
-59078
-59081
-59082
-59080
-59082
-59075
-59080
-59076
-59081
-59077
-59081
-59079
-59078
-59078
-59082
-59079
-59084
-59083
-59075
-59085
-59083
-59081
-59084
-59088
-59084
-59082
-59082
-59081
-59080
-59081
-59081
-59079
-59081
-59084
-59083
-59082
-59084
-59087
-59085
-59079
-59077
-59081
-59084
-59080
-59079
-59082
-59078
-59081
-59077
-59080
-59079
-59081
-59082
-59084
-59081
-59084
-59085
-59091
-59086
-59086
-59087
-59083
-59083
-59085
-59091
-59086
-59086
-59087
-59080
-59083
-59081
-59088
-59085
-59087
-59081
-59084
-59084
-59085
-59085
-59088
-59090
-59092
-59085
-59087
-59087
-59091
-59080
-59087
-59083
-59084
-59083
-59083
-59087
-59088
-59086
-59083
-59084
-59082
-59091
-59086
-59086
-59086
-59087
-59089
-59089
-59087
-59086
-59089
-59089
-59085
-59089
-59091
-59088
-59090
-59086
-59088
-59088
-59089
-59090
-59092
-59089
-59092
-59088
-59093
-59086
-59086
-59094
-59091
-59087
-59094
-59087
-59089
-59096
-59088
-59089
-59093
-59088
-59090
-59090
-59089
-59088
-59092
-59096
-59090
-59090
-59091
-59092
-59099
-59095
-59094
-59094
-59095
-59092
-59094
-59095
-59093
-59092
-59094
-59090
-59094
-59093
-59094
-59100
-59097
-59099
-59094
-59100
-59091
-59086
-59095
-59093
-59098
-59092
-59095
-59095
-59094
-59098
-59096
-59098
-59096
-59101
-59097
-59092
-59093
-59093
-59095
-59094
-59098
-59094
-59100
-59092
-59093
-59100
-59093
-59098
-59092
-59097
-59095
-59100
-59094
-59097
-59096
-59092
-59093
-59099
-59091
-59091
-59090
-59092
-59092
-59095
-59095
-59087
-59085
-59090
-59089
-59087
-59085
-59093
-59089
-59091
-59087
-59086
-59091
-59084
-59086
-59086
-59090
-59081
-59084
-59086
-59079
-59083
-59085
-59086
-59088
-59085
-59083
-59079
-59078
-59077
-59084
-59079
-59075
-59080
-59080
-59070
-59078
-59079
-59072
-59070
-59069
-59067
-59069
-59070
-59069
-59072
-59067
-59073
-59066
-59070
-59070
-59073
-59061
-59068
-59065
-59062
-59053
-59059
-59060
-59061
-59062
-59058
-59060
-59056
-59062
-59060
-59058
-59063
-59055
-59057
-59050
-59058
-59051
-59053
-59051
-59049
-59046
-59050
-59045
-59047
-59053
-59042
-59044
-59046
-59045
-59044
-59041
-59042
-59045
-59035
-59035
-59041
-59040
-59040
-59039
-59037
-59033
-59045
-59045
-59036
-59034
-59031
-59037
-59034
-59037
-59032
-59031
-59031
-59028
-59025
-59029
-59029
-59031
-59032
-59028
-59028
-59026
-59025
-59019
-59019
-59024
-59021
-59019
-59022
-59018
-59027
-59024
-59018
-59018
-59016
-59018
-59024
-59014
-59018
-59012
-59021
-59019
-59019
-59012
-59017
-59011
-59014
-59018
-59015
-59012
-59015
-59014
-59014
-59011
-59008
-59012
-59015
-59011
-59009
-59009
-59010
-59010
-59006
-59009
-59008
-59010
-59008
-59015
-59010
-59015
-59003
-59006
-59010
-59007
-59005
-59006
-59008
-59009
-59002
-59013
-59007
-59004
-59007
-59002
-59006
-59005
-59014
-59010
-59012
-59009
-59014
-59007
-59011
-59008
-59009
-59011
-59005
-59010
-59011
-59008
-59012
-59007
-59007
-59003
-59002
-59009
-59002
-59006
-59011
-59007
-59010
-59004
-59007
-59007
-59006
-59012
-59003
-59007
-59012
-59010
-59007
-59004
-59010
-59009
-59009
-59013
-59004
-59006
-59006
-59013
-59008
-59011
-59008
-59007
-59014
-59008
-59009
-59009
-59009
-59010
-59012
-59010
-59012
-59011
-59007
-59009
-59013
-59012
-59015
-59008
-59014
-59013
-59013
-59007
-59013
-59013
-59015
-59014
-59016
-59015
-59017
-59013
-59013
-59017
-59012
-59007
-59011
-59012
-59012
-59013
-59017
-59013
-59018
-59019
-59017
-59009
-59015
-59011
-59014
-59014
-59014
-59023
-59018
-59018
-59018
-59013
-59021
-59023
-59015
-59017
-59019
-59017
-59010
-59021
-59017
-59016
-59013
-59018
-59018
-59015
-59021
-59018
-59019
-59016
-59017
-59014
-59015
-59019
-59016
-59018
-59014
-59015
-59019
-59020
-59019
-59019
-59017
-59019
-59018
-59014
-59013
-59019
-59019
-59020
-59017
-59016
-59019
-59020
-59013
-59012
-59017
-59021
-59022
-59017
-59022
-59018
-59019
-59015
-59021
-59016
-59020
-59017
-59027
-59019
-59024
-59016
-59013
-59019
-59018
-59012
-59016
-59021
-59015
-59015
-59014
-59015
-59014
-59018
-59022
-59021
-59021
-59021
-59017
-59015
-59017
-59021
-59022
-59020
-59025
-59018
-59020
-59017
-59018
-59023
-59017
-59019
-59016
-59017
-59012
-59019
-59018
-59018
-59018
-59019
-59021
-59016
-59020
-59024
-59019
-59017
-59019
-59016
-59022
-59018
-59010
-59022
-59017
-59018
-59023
-59017
-59017
-59016
-59020
-59024
-59020
-59015
-59017
-59014
-59020
-59015
-59021
-59017
-59019
-59020
-59017
-59018
-59014
-59022
-59016
-59012
-59014
-59017
-59020
-59017
-59019
-59018
-59013
-59020
-59014
-59014
-59015
-59018
-59018
-59014
-59017
-59014
-59017
-59014
-59015
-59014
-59019
-59017
-59014
-59017
-59012
-59012
-59013
-59014
-59019
-59014
-59016
-59014
-59011
-59009
-59016
-59012
-59017
-59016
-59013
-59013
-59014
-59013
-59010
-59014
-59016
-59014
-59016
-59018
-59011
-59012
-59013
-59018
-59017
-59014
-59012
-59013
-59014
-59015
-59015
-59015
-59015
-59011
-59016
-59021
-59017
-59020
-59012
-59019
-59009
-59015
-59018
-59014
-59016
-59016
-59017
-59015
-59014
-59024
-59017
-59012
-59009
-59016
-59014
-59017
-59012
-59019
-59012
-59012
-59019
-59013
-59021
-59018
-59014
-59015
-59011
-59017
-59019
-59017
-59015
-59014
-59016
-59017
-59016
-59023
-59016
-59015
-59015
-59021
-59016
-59014
-59018
-59017
-59015
-59016
-59018
-59017
-59022
-59019
-59013
-59018
-59018
-59019
-59018
-59016
-59020
-59022
-59019
-59014
-59019
-59015
-59018
-59014
-59021
-59014
-59017
-59016
-59017
-59017
-59022
-59013
-59017
-59020
-59020
-59020
-59017
-59023
-59021
-59016
-59016
-59013
-59016
-59024
-59022
-59022
-59021
-59015
-59019
-59018
-59016
-59019
-59020
-59021
-59018
-59021
-59014
-59011
-59019
-59017
-59012
-59018
-59018
-59011
-59019
-59018
-59018
-59023
-59023
-59017
-59020
-59017
-59021
-59017
-59018
-59020
-59017
-59018
-59016
-59021
-59022
-59015
-59018
-59023
-59023
-59024
-59018
-59021
-59018
-59016
-59016
-59025
-59024
-59023
-59020
-59019
-59021
-59021
-59021
-59019
-59016
-59023
-59017
-59024
-59019
-59023
-59022
-59025
-59021
-59019
-59019
-59013
-59016
-59025
-59020
-59018
-59020
-59022
-59024
-59025
-59019
-59021
-59024
-59022
-59022
-59015
-59019
-59022
-59022
-59020
-59020
-59019
-59025
-59015
-59025
-59024
-59027
-59021
-59022
-59028
-59026
-59022
-59029
-59022
-59031
-59028
-59028
-59018
-59027
-59030
-59026
-59026
-59028
-59026
-59027
-59020
-59023
-59025
-59019
-59026
-59026
-59024
-59033
-59028
-59023
-59021
-59024
-59025
-59026
-59029
-59023
-59026
-59021
-59021
-59027
-59027
-59025
-59020
-59028
-59024
-59024
-59024
-59021
-59027
-59025
-59029
-59027
-59023
-59027
-59024
-59030
-59028
-59027
-59034
-59029
-59029
-59028
-59025
-59028
-59027
-59025
-59028
-59029
-59023
-59027
-59024
-59022
-59028
-59026
-59026
-59032
-59030
-59025
-59024
-59024
-59032
-59033
-59029
-59030
-59031
-59032
-59031
-59031
-59029
-59026
-59035
-59032
-59032
-59026
-59036
-59032
-59035
-59031
-59035
-59032
-59034
-59036
-59033
-59033
-59035
-59029
-59028
-59029
-59035
-59027
-59033
-59032
-59038
-59037
-59032
-59030
-59035
-59034
-59035
-59032
-59034
-59033
-59034
-59036
-59033
-59032
-59032
-59033
-59033
-59026
-59035
-59037
-59035
-59033
-59038
-59033
-59036
-59032
-59039
-59033
-59035
-59039
-59039
-59038
-59034
-59033
-59035
-59038
-59043
-59038
-59039
-59038
-59037
-59039
-59040
-59033
-59038
-59040
-59033
-59038
-59041
-59035
-59043
-59041
-59037
-59039
-59035
-59036
-59044
-59045
-59041
-59037
-59039
-59035
-59036
-59038
-59043
-59044
-59038
-59039
-59037
-59040
-59043
-59039
-59048
-59043
-59044
-59047
-59041
-59044
-59040
-59040
-59037
-59041
-59036
-59040
-59036
-59044
-59037
-59042
-59042
-59042
-59040
-59036
-59042
-59041
-59039
-59038
-59042
-59038
-59037
-59037
-59035
-59042
-59047
-59040
-59042
-59033
-59034
-59033
-59037
-59040
-59043
-59036
-59036
-59038
-59039
-59032
-59030
-59036
-59037
-59031
-59030
-59030
-59031
-59031
-59032
-59030
-59029
-59030
-59032
-59036
-59036
-59026
-59028
-59031
-59024
-59027
-59031
-59025
-59028
-59026
-59018
-59023
-59021
-59022
-59023
-59019
-59017
-59015
-59017
-59019
-59022
-59018
-59019
-59015
-59015
-59019
-59018
-59011
-59011
-59010
-59010
-59010
-59007
-59010
-59005
-59013
-59005
-59007
-59003
-59003
-59000
-59002
-59007
-58997
-59002
-58997
-59006
-58993
-58998
-59000
-58996
-58992
-58995
-58989
-58995
-58990
-58991
-58989
-58992
-58988
-58993
-58990
-58986
-58984
-58992
-58986
-58986
-58979
-58985
-58980
-58984
-58981
-58978
-58982
-58978
-58981
-58978
-58980
-58974
-58978
-58976
-58973
-58974
-58966
-58973
-58971
-58972
-58970
-58969
-58969
-58967
-58967
-58970
-58975
-58966
-58965
-58966
-58967
-58965
-58963
-58966
-58958
-58960
-58960
-58963
-58955
-58959
-58961
-58970
-58955
-58954
-58967
-58965
-58963
-58959
-58959
-58958
-58962
-58961
-58956
-58956
-58950
-58962
-58950
-58955
-58952
-58958
-58954
-58954
-58955
-58949
-58952
-58955
-58952
-58948
-58954
-58954
-58947
-58953
-58957
-58952
-58952
-58945
-58951
-58950
-58940
-58947
-58953
-58952
-58951
-58950
-58955
-58944
-58945
-58949
-58954
-58948
-58953
-58950
-58954
-58949
-58948
-58949
-58949
-58948
-58953
-58949
-58953
-58947
-58949
-58951
-58950
-58950
-58945
-58951
-58948
-58950
-58953
-58946
-58948
-58950
-58949
-58952
-58951
-58942
-58951
-58948
-58949
-58952
-58951
-58953
-58951
-58942
-58949
-58954
-58949
-58949
-58945
-58946
-58948
-58953
-58950
-58949
-58949
-58946
-58955
-58950
-58949
-58951
-58949
-58947
-58953
-58949
-58951
-58953
-58952
-58947
-58953
-58952
-58947
-58952
-58948
-58952
-58952
-58955
-58951
-58956
-58955
-58952
-58949
-58957
-58952
-58953
-58951
-58955
-58955
-58958
-58955
-58954
-58956
-58959
-58954
-58961
-58959
-58955
-58953
-58956
-58958
-58955
-58956
-58955
-58960
-58958
-58955
-58957
-58958
-58961
-58963
-58962
-58954
-58955
-58958
-58960
-58962
-58960
-58955
-58959
-58960
-58959
-58957
-58961
-58964
-58963
-58962
-58965
-58966
-58956
-58961
-58961
-58957
-58965
-58960
-58957
-58967
-58963
-58956
-58957
-58964
-58968
-58961
-58965
-58957
-58961
-58961
-58962
-58960
-58960
-58957
-58962
-58962
-58953
-58958
-58959
-58964
-58965
-58957
-58959
-58966
-58961
-58963
-58961
-58958
-58963
-58957
-58959
-58960
-58962
-58966
-58969
-58966
-58961
-58964
-58960
-58961
-58964
-58963
-58967
-58960
-58961
-58963
-58962
-58963
-58964
-58963
-58960
-58959
-58966
-58963
-58957
-58962
-58959
-58957
-58960
-58962
-58965
-58960
-58961
-58956
-58962
-58961
-58957
-58963
-58963
-58964
-58958
-58953
-58959
-58957
-58954
-58957
-58961
-58965
-58962
-58960
-58964
-58962
-58963
-58959
-58967
-58956
-58965
-58958
-58960
-58967
-58963
-58955
-58965
-58958
-58961
-58963
-58963
-58958
-58958
-58965
-58961
-58959
-58959
-58962
-58962
-58957
-58963
-58962
-58959
-58962
-58960
-58959
-58961
-58965
-58960
-58958
-58965
-58956
-58963
-58963
-58960
-58961
-58957
-58960
-58960
-58957
-58962
-58960
-58965
-58966
-58963
-58961
-58962
-58968
-58960
-58958
-58963
-58963
-58967
-58958
-58966
-58964
-58957
-58962
-58965
-58960
-58960
-58959
-58966
-58959
-58958
-58960
-58962
-58967
-58969
-58966
-58962
-58967
-58963
-58968
-58968
-58966
-58970
-58963
-58967
-58963
-58963
-58959
-58960
-58957
-58967
-58963
-58964
-58957
-58964
-58961
-58967
-58957
-58962
-58968
-58957
-58965
-58963
-58964
-58961
-58962
-58965
-58966
-58963
-58962
-58966
-58965
-58962
-58960
-58962
-58960
-58957
-58963
-58964
-58966
-58966
-58966
-58966
-58959
-58965
-58963
-58958
-58965
-58968
-58963
-58960
-58965
-58957
-58964
-58963
-58963
-58965
-58959
-58962
-58964
-58965
-58966
-58964
-58968
-58962
-58968
-58966
-58964
-58967
-58964
-58961
-58966
-58968
-58959
-58957
-58967
-58963
-58964
-58958
-58961
-58966
-58964
-58963
-58962
-58968
-58964
-58965
-58967
-58967
-58962
-58968
-58968
-58966
-58969
-58960
-58971
-58965
-58966
-58969
-58967
-58968
-58970
-58969
-58966
-58966
-58970
-58971
-58969
-58964
-58971
-58974
-58964
-58960
-58969
-58971
-58966
-58966
-58971
-58968
-58968
-58968
-58973
-58971
-58971
-58964
-58967
-58970
-58975
-58969
-58973
-58972
-58970
-58973
-58969
-58969
-58967
-58974
-58972
-58968
-58968
-58967
-58966
-58964
-58968
-58967
-58973
-58970
-58972
-58972
-58971
-58967
-58967
-58973
-58967
-58973
-58970
-58971
-58974
-58968
-58972
-58970
-58966
-58973
-58971
-58972
-58967
-58974
-58967
-58976
-58971
-58968
-58972
-58975
-58974
-58978
-58978
-58971
-58970
-58973
-58971
-58974
-58971
-58974
-58976
-58974
-58971
-58973
-58972
-58976
-58973
-58969
-58971
-58975
-58977
-58976
-58976
-58976
-58973
-58978
-58980
-58976
-58977
-58975
-58979
-58976
-58974
-58973
-58968
-58981
-58973
-58971
-58969
-58976
-58971
-58976
-58976
-58971
-58976
-58977
-58979
-58976
-58972
-58980
-58971
-58977
-58975
-58973
-58977
-58979
-58974
-58976
-58973
-58975
-58978
-58972
-58977
-58977
-58979
-58982
-58980
-58974
-58979
-58982
-58978
-58979
-58981
-58982
-58979
-58982
-58981
-58982
-58972
-58982
-58977
-58977
-58981
-58983
-58978
-58978
-58977
-58982
-58980
-58982
-58977
-58979
-58975
-58984
-58978
-58981
-58976
-58983
-58984
-58981
-58982
-58981
-58985
-58978
-58988
-58985
-58985
-58984
-58982
-58988
-58990
-58983
-58982
-58985
-58987
-58984
-58982
-58983
-58987
-58984
-58983
-58983
-58979
-58988
-58983
-58984
-58984
-58979
-58989
-58985
-58985
-58983
-58983
-58987
-58982
-58984
-58988
-58985
-58987
-58991
-58990
-58989
-58993
-58991
-58988
-58989
-58991
-58987
-58984
-58983
-58987
-58986
-58993
-58987
-58992
-58993
-58994
-58995
-58990
-58996
-58990
-58986
-58988
-58989
-58988
-58988
-58992
-58989
-58988
-58989
-58993
-58991
-58989
-58994
-58992
-58986
-58995
-58991
-58992
-58990
-59002
-58993
-58993
-58991
-58989
-58988
-58993
-58991
-58993
-58994
-58994
-58988
-58991
-58994
-58997
-58996
-59001
-59000
-58994
-58998
-58998
-58997
-59000
-58991
-58995
-58994
-58994
-58992
-59003
-58996
-58996
-58999
-58998
-58999
-59002
-58997
-59001
-58996
-58997
-58994
-58997
-58996
-58997
-59005
-58999
-58996
-58998
-58999
-58993
-58999
-58994
-59001
-58998
-59002
-59001
-59003
-59002
-59001
-58996
-59001
-59004
-58998
-59005
-59002
-59003
-59002
-58998
-59002
-58999
-58997
-58996
-58998
-59005
-59007
-59006
-59000
-59004
-58998
-59005
-59001
-59005
-59002
-59001
-59005
-59005
-59006
-59002
-59004
-59009
-59005
-59005
-59007
-59002
-59004
-59004
-59010
-59006
-59000
-59006
-59005
-59009
-59009
-59008
-59001
-59007
-59008
-59010
-59007
-59010
-59006
-59006
-59008
-59008
-59005
-59008
-59011
-59011
-59013
-59006
-59008
-59012
-59010
-59010
-59010
-59010
-59008
-59018
-59006
-59008
-59014
-59016
-59013
-59011
-59018
-59014
-59011
-59013
-59016
-59014
-59015
-59017
-59017
-59018
-59010
-59017
-59012
-59019
-59011
-59012
-59014
-59010
-59010
-59010
-59007
-59007
-59014
-59017
-59011
-59013
-59023
-59017
-59016
-59017
-59016
-59013
-59011
-59016
-59017
-59012
-59015
-59015
-59015
-59015
-59017
-59015
-59016
-59017
-59019
-59018
-59018
-59014
-59016
-59017
-59010
-59017
-59020
-59022
-59011
-59017
-59019
-59017
-59010
-59013
-59018
-59011
-59012
-59020
-59016
-59012
-59020
-59012
-59011
-59016
-59014
-59012
-59010
-59011
-59014
-59013
-59012
-59016
-59015
-59007
-59015
-59011
-59011
-59010
-59008
-59007
-59007
-59004
-59010
-59008
-59003
-59009
-59009
-59006
-59008
-59006
-59006
-59007
-58996
-59002
-59005
-59006
-59003
-59004
-59001
-58998
-59001
-58995
-59002
-58996
-58997
-59001
-58997
-58998
-58991
-58996
-58993
-58994
-58997
-58990
-58995
-58985
-58990
-58991
-58992
-58991
-58989
-58982
-58987
-58982
-58993
-58985
-58983
-58983
-58983
-58984
-58981
-58980
-58983
-58981
-58981
-58978
-58977
-58977
-58978
-58976
-58982
-58971
-58972
-58972
-58976
-58974
-58971
-58972
-58968
-58965
-58966
-58969
-58973
-58968
-58970
-58967
-58962
-58966
-58966
-58970
-58964
-58961
-58963
-58965
-58962
-58965
-58967
-58964
-58962
-58960
-58961
-58959
-58960
-58963
-58958
-58955
-58967
-58963
-58960
-58958
-58961
-58957
-58964
-58959
-58952
-58955
-58959
-58958
-58954
-58950
-58954
-58954
-58953
-58953
-58946
-58948
-58949
-58957
-58947
-58949
-58949
-58950
-58946
-58954
-58946
-58946
-58948
-58952
-58945
-58947
-58949
-58948
-58950
-58950
-58947
-58945
-58955
-58946
-58950
-58947
-58945
-58947
-58946
-58947
-58950
-58951
-58948
-58945
-58951
-58946
-58949
-58945
-58945
-58945
-58948
-58944
-58949
-58948
-58946
-58942
-58944
-58943
-58941
-58939
-58944
-58949
-58943
-58944
-58950
-58950
-58946
-58947
-58946
-58949
-58949
-58949
-58943
-58947
-58948
-58943
-58945
-58942
-58942
-58941
-58945
-58949
-58945
-58947
-58950
-58948
-58946
-58949
-58945
-58942
-58949
-58947
-58944
-58952
-58944
-58950
-58948
-58953
-58946
-58948
-58948
-58953
-58953
-58947
-58949
-58950
-58953
-58953
-58948
-58950
-58950
-58955
-58949
-58946
-58948
-58948
-58941
-58952
-58946
-58947
-58956
-58954
-58952
-58954
-58953
-58948
-58950
-58951
-58952
-58947
-58957
-58955
-58950
-58954
-58954
-58951
-58956
-58954
-58954
-58958
-58947
-58956
-58954
-58954
-58953
-58960
-58951
-58954
-58954
-58954
-58949
-58958
-58955
-58956
-58956
-58952
-58960
-58961
-58960
-58958
-58953
-58954
-58956
-58959
-58961
-58964
-58959
-58953
-58958
-58960
-58960
-58962
-58962
-58961
-58966
-58961
-58958
-58957
-58959
-58964
-58962
-58963
-58963
-58957
-58964
-58959
-58966
-58958
-58957
-58962
-58966
-58966
-58961
-58964
-58961
-58955
-58961
-58965
-58960
-58957
-58966
-58968
-58966
-58966
-58959
-58967
-58964
-58963
-58969
-58965
-58967
-58957
-58961
-58961
-58966
-58960
-58965
-58963
-58965
-58970
-58969
-58965
-58973
-58971
-58967
-58966
-58964
-58966
-58967
-58963
-58965
-58966
-58966
-58970
-58963
-58971
-58967
-58964
-58967
-58969
-58972
-58970
-58961
-58969
-58968
-58967
-58964
-58962
-58965
-58968
-58964
-58969
-58974
-58970
-58966
-58971
-58969
-58971
-58970
-58963
-58963
-58964
-58964
-58970
-58964
-58969
-58969
-58966
-58966
-58966
-58967
-58960
-58960
-58965
-58959
-58972
-58963
-58966
-58972
-58962
-58969
-58969
-58960
-58965
-58975
-58969
-58964
-58968
-58967
-58966
-58969
-58971
-58966
-58970
-58966
-58970
-58968
-58972
-58962
-58972
-58972
-58970
-58966
-58967
-58968
-58966
-58968
-58971
-58971
-58972
-58971
-58971
-58970
-58967
-58969
-58967
-58968
-58969
-58966
-58967
-58967
-58970
-58969
-58968
-58965
-58972
-58965
-58962
-58962
-58968
-58972
-58973
-58968
-58977
-58969
-58965
-58970
-58971
-58965
-58968
-58971
-58969
-58970
-58971
-58972
-58969
-58969
-58969
-58971
-58966
-58968
-58973
-58970
-58971
-58969
-58972
-58967
-58964
-58972
-58974
-58972
-58968
-58971
-58972
-58972
-58970
-58967
-58968
-58975
-58975
-58970
-58974
-58970
-58975
-58974
-58975
-58968
-58968
-58970
-58974
-58974
-58968
-58969
-58970
-58969
-58976
-58970
-58970
-58974
-58975
-58973
-58976
-58970
-58973
-58970
-58976
-58975
-58969
-58970
-58975
-58968
-58974
-58975
-58972
-58975
-58972
-58979
-58973
-58978
-58971
-58975
-58977
-58978
-58971
-58975
-58976
-58975
-58977
-58975
-58976
-58973
-58976
-58970
-58978
-58976
-58975
-58974
-58977
-58976
-58976
-58975
-58976
-58980
-58985
-58971
-58979
-58976
-58983
-58975
-58978
-58978
-58975
-58980
-58978
-58976
-58979
-58981
-58978
-58974
-58976
-58978
-58980
-58976
-58976
-58982
-58982
-58977
-58979
-58977
-58983
-58979
-58984
-58985
-58978
-58988
-58981
-58981
-58982
-58981
-58979
-58984
-58980
-58981
-58980
-58981
-58982
-58982
-58986
-58986
-58986
-58983
-58981
-58983
-58983
-58980
-58985
-58988
-58987
-58992
-58982
-58983
-58982
-58988
-58979
-58984
-58984
-58987
-58992
-58990
-58983
-58986
-58985
-58989
-58989
-58986
-58985
-58990
-58985
-58982
-58988
-58993
-58987
-58990
-58987
-58988
-58989
-58984
-58986
-58985
-58987
-58989
-58988
-58986
-58989
-58989
-58987
-58995
-58993
-58993
-58992
-58989
-58987
-58992
-58993
-58992
-58992
-58993
-58989
-58990
-58986
-58984
-58991
-58997
-58989
-58995
-58993
-58989
-58988
-58992
-58989
-58991
-58988
-58987
-58989
-58991
-58990
-58993
-58990
-58994
-58994
-58988
-58991
-58994
-58998
-58991
-58991
-58991
-58998
-58992
-58993
-58991
-58996
-58995
-58991
-58999
-58995
-58998
-58991
-58992
-58987
-58994
-58993
-58992
-58996
-58992
-58991
-58991
-58991
-58997
-58995
-58993
-58992
-58998
-58997
-58994
-59000
-58999
-58998
-58996
-59001
-58993
-58998
-59000
-58997
-59000
-58996
-58995
-59004
-59001
-58999
-59002
-59004
-59002
-59000
-58996
-58998
-59001
-59000
-59001
-59003
-59003
-59004
-58996
-59005
-59005
-59005
-58999
-58998
-59001
-59004
-59003
-59001
-58999
-59005
-59004
-59001
-59001
-59001
-59007
-59009
-59009
-59002
-59004
-59003
-59011
-59002
-59007
-59009
-59007
-59007
-59007
-59010
-59005
-59012
-59010
-59008
-59011
-59008
-59012
-59007
-59006
-59013
-59012
-59010
-59012
-59015
-59014
-59014
-59005
-59012
-59012
-59010
-59013
-59015
-59012
-59014
-59011
-59010
-59010
-59012
-59014
-59013
-59011
-59012
-59010
-59013
-59015
-59022
-59013
-59010
-59012
-59011
-59011
-59013
-59013
-59012
-59014
-59019
-59011
-59016
-59012
-59011
-59013
-59012
-59008
-59012
-59017
-59017
-59014
-59014
-59011
-59015
-59018
-59016
-59014
-59017
-59020
-59006
-59023
-59016
-59012
-59019
-59016
-59019
-59019
-59020
-59020
-59018
-59021
-59013
-59013
-59016
-59022
-59018
-59023
-59024
-59024
-59015
-59023
-59020
-59022
-59017
-59021
-59016
-59025
-59023
-59019
-59027
-59022
-59020
-59027
-59021
-59021
-59022
-59020
-59020
-59023
-59023
-59029
-59027
-59022
-59024
-59028
-59024
-59021
-59022
-59027
-59030
-59023
-59025
-59028
-59028
-59025
-59029
-59029
-59026
-59031
-59025
-59023
-59029
-59026
-59027
-59025
-59032
-59028
-59025
-59024
-59026
-59026
-59031
-59026
-59033
-59030
-59032
-59025
-59029
-59029
-59030
-59027
-59031
-59027
-59030
-59026
-59028
-59031
-59031
-59029
-59026
-59033
-59030
-59031
-59031
-59029
-59030
-59034
-59032
-59027
-59030
-59035
-59033
-59031
-59035
-59030
-59033
-59039
-59034
-59033
-59035
-59041
-59026
-59034
-59038
-59035
-59036
-59039
-59034
-59039
-59043
-59041
-59039
-59040
-59036
-59036
-59037
-59034
-59036
-59037
-59041
-59038
-59033
-59041
-59042
-59037
-59039
-59035
-59042
-59041
-59039
-59045
-59041
-59044
-59043
-59044
-59043
-59042
-59044
-59045
-59040
-59038
-59038
-59048
-59046
-59037
-59037
-59042
-59038
-59041
-59037
-59041
-59044
-59043
-59049
-59045
-59044
-59045
-59042
-59045
-59044
-59045
-59039
-59042
-59039
-59042
-59043
-59042
-59046
-59045
-59046
-59039
-59049
-59044
-59040
-59044
-59043
-59049
-59049
-59047
-59044
-59047
-59052
-59045
-59048
-59041
-59053
-59052
-59051
-59048
-59053
-59053
-59047
-59052
-59053
-59052
-59058
-59051
-59055
-59052
-59048
-59053
-59054
-59049
-59049
-59049
-59049
-59049
-59053
-59049
-59054
-59052
-59056
-59054
-59053
-59053
-59061
-59058
-59059
-59054
-59054
-59047
-59055
-59051
-59049
-59055
-59053
-59050
-59055
-59046
-59053
-59050
-59056
-59054
-59059
-59052
-59047
-59049
-59047
-59051
-59059
-59054
-59046
-59049
-59047
-59057
-59054
-59048
-59041
-59048
-59049
-59052
-59044
-59048
-59049
-59052
-59057
-59047
-59046
-59047
-59045
-59045
-59045
-59047
-59038
-59042
-59043
-59044
-59042
-59044
-59044
-59042
-59035
-59037
-59042
-59037
-59040
-59042
-59043
-59040
-59041
-59037
-59039
-59030
-59036
-59038
-59034
-59037
-59037
-59037
-59030
-59034
-59037
-59032
-59028
-59032
-59027
-59027
-59027
-59028
-59033
-59038
-59031
-59031
-59028
-59030
-59027
-59029
-59025
-59030
-59026
-59030
-59028
-59025
-59025
-59025
-59023
-59024
-59023
-59022
-59020
-59023
-59021
-59027
-59016
-59023
-59021
-59022
-59021
-59022
-59020
-59023
-59026
-59022
-59020
-59023
-59024
-59023
-59024
-59017
-59017
-59022
-59016
-59021
-59024
-59016
-59023
-59016
-59023
-59019
-59022
-59020
-59016
-59010
-59015
-59018
-59020
-59014
-59017
-59017
-59014
-59012
-59017
-59013
-59019
-59011
-59010
-59022
-59012
-59014
-59016
-59013
-59015
-59015
-59012
-59013
-59012
-59015
-59016
-59013
-59012
-59017
-59018
-59011
-59012
-59015
-59020
-59009
-59016
-59014
-59017
-59018
-59017
-59015
-59014
-59007
-59013
-59014
-59011
-59013
-59012
-59016
-59018
-59018
-59014
-59014
-59018
-59017
-59018
-59018
-59023
-59018
-59018
-59015
-59011
-59012
-59020
-59018
-59018
-59022
-59015
-59013
-59011
-59020
-59020
-59019
-59018
-59021
-59019
-59015
-59020
-59020
-59017
-59019
-59019
-59019
-59017
-59019
-59021
-59018
-59020
-59023
-59014
-59023
-59026
-59022
-59017
-59022
-59021
-59019
-59022
-59029
-59027
-59022
-59024
-59026
-59025
-59022
-59026
-59029
-59027
-59026
-59029
-59024
-59033
-59028
-59027
-59028
-59035
-59033
-59028
-59030
-59029
-59033
-59035
-59033
-59035
-59030
-59037
-59034
-59039
-59034
-59026
-59037
-59030
-59033
-59026
-59032
-59031
-59032
-59036
-59035
-59032
-59028
-59037
-59031
-59034
-59038
-59035
-59028
-59040
-59033
-59038
-59041
-59036
-59039
-59037
-59033
-59039
-59041
-59044
-59036
-59037
-59037
-59042
-59044
-59045
-59037
-59042
-59042
-59035
-59037
-59040
-59039
-59040
-59039
-59042
-59043
-59045
-59044
-59043
-59045
-59045
-59043
-59043
-59044
-59040
-59039
-59043
-59042
-59044
-59047
-59044
-59045
-59050
-59047
-59045
-59046
-59044
-59040
-59045
-59051
-59052
-59044
-59050
-59046
-59041
-59048
-59051
-59046
-59047
-59046
-59049
-59043
-59044
-59048
-59046
-59043
-59047
-59054
-59045
-59052
-59047
-59048
-59048
-59048
-59051
-59046
-59048
-59052
-59047
-59050
-59054
-59052
-59045
-59049
-59053
-59047
-59049
-59052
-59050
-59049
-59045
-59046
-59050
-59048
-59047
-59050
-59049
-59048
-59047
-59048
-59047
-59054
-59055
-59051
-59048
-59050
-59051
-59054
-59051
-59055
-59051
-59049
-59060
-59051
-59050
-59052
-59047
-59052
-59045
-59049
-59052
-59044
-59046
-59052
-59052
-59051
-59048
-59052
-59049
-59046
-59052
-59049
-59053
-59050
-59051
-59054
-59051
-59051
-59053
-59051
-59057
-59045
-59055
-59052
-59051
-59054
-59047
-59056
-59056
-59055
-59053
-59054
-59053
-59057
-59050
-59054
-59051
-59053
-59052
-59049
-59060
-59056
-59063
-59060
-59053
-59046
-59049
-59055
-59056
-59056
-59051
-59055
-59053
-59057
-59054
-59056
-59055
-59052
-59053
-59050
-59052
-59055
-59060
-59060
-59059
-59058
-59061
-59056
-59057
-59047
-59055
-59055
-59051
-59054
-59054
-59056
-59058
-59057
-59057
-59056
-59060
-59054
-59054
-59059
-59055
-59053
-59059
-59056
-59055
-59056
-59056
-59061
-59056
-59061
-59055
-59055
-59059
-59053
-59055
-59058
-59054
-59060
-59062
-59054
-59056
-59054
-59057
-59059
-59060
-59060
-59061
-59062
-59060
-59060
-59058
-59058
-59054
-59058
-59057
-59064
-59055
-59055
-59062
-59060
-59064
-59066
-59062
-59065
-59063
-59060
-59064
-59058
-59066
-59066
-59060
-59063
-59065
-59061
-59065
-59061
-59060
-59063
-59059
-59065
-59063
-59064
-59063
-59068
-59058
-59062
-59064
-59066
-59063
-59065
-59065
-59072
-59070
-59072
-59067
-59067
-59065
-59063
-59062
-59066
-59069
-59064
-59063
-59069
-59067
-59070
-59070
-59065
-59075
-59072
-59066
-59067
-59070
-59068
-59068
-59071
-59069
-59074
-59073
-59071
-59066
-59070
-59070
-59076
-59070
-59067
-59074
-59069
-59071
-59075
-59073
-59070
-59067
-59073
-59078
-59075
-59073
-59070
-59068
-59073
-59071
-59074
-59076
-59071
-59064
-59072
-59074
-59076
-59073
-59072
-59076
-59067
-59075
-59081
-59077
-59076
-59074
-59077
-59075
-59075
-59079
-59073
-59077
-59073
-59079
-59079
-59084
-59082
-59074
-59075
-59078
-59077
-59077
-59080
-59080
-59075
-59078
-59081
-59087
-59075
-59080
-59076
-59080
-59081
-59078
-59079
-59079
-59081
-59078
-59074
-59080
-59080
-59079
-59075
-59078
-59077
-59075
-59076
-59072
-59074
-59078
-59073
-59078
-59074
-59076
-59080
-59080
-59077
-59075
-59080
-59084
-59078
-59081
-59082
-59078
-59084
-59079
-59084
-59082
-59084
-59079
-59085
-59082
-59081
-59082
-59087
-59079
-59088
-59079
-59077
-59089
-59078
-59080
-59082
-59083
-59083
-59083
-59081
-59084
-59088
-59087
-59079
-59086
-59084
-59082
-59084
-59083
-59085
-59085
-59085
-59082
-59084
-59090
-59086
-59084
-59082
-59087
-59086
-59089
-59085
-59083
-59085
-59083
-59086
-59088
-59088
-59084
-59089
-59090
-59087
-59088
-59089
-59086
-59087
-59087
-59088
-59091
-59088
-59083
-59094
-59091
-59093
-59090
-59093
-59088
-59091
-59090
-59085
-59090
-59090
-59090
-59085
-59090
-59092
-59094
-59087
-59087
-59090
-59094
-59090
-59092
-59092
-59092
-59091
-59093
-59087
-59099
-59095
-59096
-59095
-59094
-59097
-59089
-59093
-59087
-59099
-59099
-59098
-59091
-59093
-59095
-59103
-59093
-59101
-59101
-59094
-59105
-59093
-59107
-59104
-59099
-59098
-59097
-59099
-59102
-59096
-59101
-59100
-59098
-59092
-59102
-59102
-59100
-59105
-59099
-59102
-59100
-59096
-59104
-59094
-59104
-59094
-59102
-59102
-59103
-59103
-59100
-59103
-59103
-59101
-59102
-59108
-59104
-59109
-59110
-59109
-59110
-59106
-59108
-59103
-59106
-59109
-59110
-59109
-59109
-59104
-59110
-59113
-59113
-59110
-59107
-59110
-59114
-59109
-59108
-59109
-59114
-59113
-59109
-59110
-59107
-59114
-59112
-59110
-59107
-59112
-59110
-59111
-59108
-59109
-59117
-59114
-59118
-59109
-59106
-59115
-59114
-59116
-59111
-59109
-59111
-59117
-59115
-59110
-59119
-59119
-59112
-59117
-59115
-59116
-59112
-59115
-59123
-59119
-59120
-59109
-59116
-59116
-59115
-59115
-59109
-59114
-59116
-59111
-59120
-59110
-59120
-59115
-59117
-59112
-59114
-59116
-59121
-59119
-59120
-59120
-59121
-59116
-59118
-59114
-59119
-59119
-59113
-59122
-59118
-59118
-59121
-59122
-59117
-59118
-59120
-59124
-59116
-59123
-59124
-59121
-59117
-59123
-59116
-59120
-59121
-59125
-59125
-59121
-59122
-59122
-59120
-59122
-59123
-59124
-59123
-59117
-59123
-59116
-59122
-59124
-59123
-59127
-59120
-59127
-59124
-59128
-59127
-59122
-59124
-59122
-59128
-59122
-59127
-59124
-59126
-59128
-59123
-59127
-59124
-59122
-59122
-59124
-59128
-59127
-59125
-59125
-59127
-59130
-59127
-59134
-59133
-59124
-59130
-59133
-59128
-59122
-59130
-59130
-59131
-59133
-59132
-59133
-59135
-59133
-59133
-59133
-59138
-59133
-59130
-59127
-59134
-59132
-59133
-59128
-59128
-59132
-59132
-59130
-59138
-59134
-59135
-59138
-59136
-59132
-59139
-59138
-59131
-59138
-59134
-59139
-59135
-59140
-59135
-59132
-59138
-59126
-59131
-59138
-59131
-59133
-59133
-59131
-59133
-59136
-59142
-59137
-59136
-59135
-59138
-59130
-59132
-59132
-59136
-59134
-59136
-59128
-59132
-59136
-59134
-59135
-59134
-59134
-59131
-59136
-59130
-59131
-59135
-59129
-59134
-59128
-59135
-59133
-59131
-59140
-59127
-59135
-59128
-59136
-59133
-59131
-59125
-59125
-59128
-59136
-59131
-59129
-59126
-59135
-59127
-59126
-59125
-59128
-59125
-59127
-59126
-59129
-59124
-59127
-59127
-59125
-59129
-59126
-59127
-59123
-59122
-59121
-59125
-59126
-59122
-59118
-59119
-59122
-59115
-59117
-59124
-59121
-59121
-59126
-59117
-59121
-59119
-59114
-59120
-59122
-59117
-59118
-59116
-59116
-59113
-59118
-59114
-59118
-59118
-59112
-59115
-59109
-59111
-59115
-59118
-59118
-59114
-59109
-59114
-59116
-59107
-59111
-59113
-59106
-59108
-59111
-59111
-59108
-59109
-59112
-59111
-59108
-59114
-59110
-59111
-59108
-59113
-59108
-59113
-59108
-59111
-59109
-59110
-59107
-59111
-59106
-59113
-59114
-59109
-59106
-59115
-59107
-59114
-59109
-59117
-59112
-59113
-59110
-59108
-59111
-59109
-59110
-59111
-59105
-59110
-59106
-59113
-59106
-59108
-59111
-59106
-59111
-59107
-59112
-59110
-59111
-59104
-59109
-59108
-59112
-59111
-59116
-59111
-59108
-59117
-59114
-59119
-59110
-59116
-59117
-59108
-59118
-59112
-59114
-59117
-59116
-59111
-59117
-59117
-59118
-59118
-59115
-59116
-59113
-59117
-59113
-59118
-59119
-59114
-59115
-59113
-59113
-59119
-59117
-59115
-59117
-59117
-59114
-59111
-59120
-59119
-59118
-59117
-59119
-59116
-59118
-59124
-59122
-59124
-59117
-59122
-59121
-59123
-59125
-59124
-59126
-59119
-59123
-59122
-59121
-59121
-59125
-59118
-59127
-59120
-59123
-59121
-59125
-59122
-59120
-59127
-59121
-59126
-59120
-59121
-59130
-59126
-59122
-59123
-59124
-59124
-59130
-59124
-59127
-59128
-59123
-59127
-59126
-59134
-59127
-59129
-59129
-59125
-59131
-59127
-59132
-59130
-59130
-59129
-59133
-59132
-59133
-59132
-59145
-59131
-59132
-59136
-59132
-59133
-59137
-59137
-59135
-59129
-59137
-59134
-59130
-59131
-59137
-59141
-59134
-59133
-59132
-59140
-59133
-59139
-59137
-59138
-59141
-59147
-59141
-59139
-59140
-59142
-59142
-59139
-59137
-59143
-59139
-59140
-59142
-59145
-59145
-59144
-59138
-59145
-59144
-59146
-59146
-59147
-59145
-59144
-59141
-59143
-59145
-59137
-59137
-59146
-59143
-59143
-59148
-59148
-59145
-59142
-59146
-59144
-59148
-59153
-59150
-59144
-59143
-59144
-59145
-59148
-59152
-59142
-59147
-59147
-59147
-59146
-59146
-59145
-59147
-59148
-59145
-59150
-59150
-59150
-59146
-59146
-59145
-59144
-59148
-59147
-59144
-59145
-59148
-59149
-59145
-59148
-59149
-59148
-59142
-59149
-59144
-59145
-59149
-59147
-59146
-59141
-59148
-59146
-59145
-59145
-59146
-59149
-59145
-59146
-59150
-59144
-59147
-59147
-59152
-59146
-59147
-59147
-59145
-59149
-59150
-59148
-59151
-59151
-59150
-59147
-59155
-59149
-59148
-59149
-59151
-59146
-59145
-59151
-59147
-59151
-59154
-59151
-59148
-59149
-59156
-59149
-59149
-59155
-59150
-59148
-59143
-59147
-59150
-59144
-59153
-59149
-59152
-59145
-59146
-59151
-59149
-59144
-59147
-59147
-59152
-59142
-59147
-59149
-59149
-59150
-59145
-59150
-59149
-59149
-59145
-59143
-59146
-59143
-59145
-59148
-59146
-59147
-59146
-59148
-59147
-59153
-59153
-59150
-59150
-59153
-59150
-59148
-59147
-59153
-59150
-59151
-59150
-59152
-59154
-59149
-59150
-59147
-59154
-59150
-59152
-59153
-59145
-59145
-59148
-59150
-59153
-59155
-59151
-59154
-59149
-59152
-59148
-59148
-59156
-59150
-59148
-59151
-59152
-59153
-59153
-59149
-59152
-59156
-59152
-59152
-59150
-59154
-59154
-59151
-59154
-59157
-59158
-59150
-59160
-59157
-59162
-59161
-59155
-59156
-59153
-59156
-59157
-59154
-59158
-59161
-59149
-59155
-59155
-59152
-59156
-59155
-59155
-59159
-59156
-59154
-59158
-59153
-59159
-59157
-59155
-59162
-59157
