mvc (2000 Hz)
0
-0.03
0.008
-0.025
-0.005
0.065
0.018
0.028
0.057
0.033
0.011
0.033
0.036
0.017
-0.006
0.001
0
-0.007
0.018
0.034
0.056
0.01
0.016
0.014
0.031
0.041
0.033
0.018
0.005
0.04
-0.017
-0.038
0.093
0.079
0.009
-0.043
0.003
-0.056
0.074
0.015
-0.018
-0.028
-0.005
0.083
0.027
-0.04
0.012
0.047
0.038
0.1
-0.018
-0.008
-0.048
0.003
0.079
0.082
0.009
-0.037
-0.008
0.02
0.035
0.043
0.001
0.019
0.047
0.026
-0.012
0.044
0.009
-0.007
0.034
0.035
0.029
0.044
-0.033
-0.071
0
0.138
0.039
-0.002
-0.012
-0.026
0.028
0.051
0.056
-0.019
-0.068
0.07
0.033
-0.011
0.059
0.033
-0.014
0.024
0.041
-0.006
-0.01
0.037
-0.002
0.017
0.015
-0.001
-0.009
0.067
0.045
0.038
0.031
0.033
0.025
0.013
-0.019
0
0
0.001
0.063
0.028
0.022
0.084
0.008
-0.015
0.034
0
0.028
0.083
0.006
0.018
0.035
0.026
0.021
0.01
-0.02
0.038
0.043
-0.046
0.032
0.051
0.047
-0.021
0.015
-0.026
0.004
-0.067
0.054
0.067
0.088
0.045
0.023
0.041
0.007
-0.044
0.04
0.024
0.006
0.043
0.045
0.018
-0.021
0.015
-0.043
0
0.076
0.042
0.018
0.046
0.018
-0.016
0.039
-0.023
0.038
0.009
0.009
0.024
0.068
0.013
0.003
-0.008
0.016
0.025
0
0.048
0.035
0.03
0.051
0.041
0.009
-0.014
0.049
0.061
-0.012
-0.031
-0.031
0.027
0.044
0.029
0.011
0.067
0.03
-0.06
0.037
0.029
0.058
0.057
0.032
0.104
0.026
-0.004
-0.015
-0.008
-0.038
0
0.033
0.051
0.014
0.016
0.043
0.019
0.009
-0.006
0.001
0.003
0.046
0.052
0.045
0.048
0.025
0.06
-0.005
-0.023
-0.001
0.024
0.016
0.029
0.002
0.047
0.015
0.029
0.006
0.017
0.018
0.04
0.042
0.045
0.018
-0.003
-0.025
0.003
0.02
0.072
-0.026
0.041
0.019
0.002
0.04
0.024
-0.008
0.033
-0.004
0.03
0.048
0
-0.058
0.116
0.047
0.016
0.009
0.033
0.032
0.039
0.061
0.004
0.017
0.029
-0.04
-0.027
0.068
0.058
0.029
-0.044
-0.007
-0.02
0.03
0.016
0.03
0.057
0.04
0.019
0.01
0.041
-0.017
0.035
0.036
0.036
-0.001
0.001
0.007
0.018
0.05
0.01
0.009
0.008
0.04
0.028
0.027
0.019
0.026
0.033
-0.013
-0.044
0.049
0.092
0.052
0.003
0.007
0.014
0.009
0.013
0.074
0.063
-0.005
-0.012
-0.021
-0.041
-0.031
0.041
0.024
0.035
0.06
0.051
0.025
0.056
0.03
-0.032
0.051
0.022
-0.042
-0.035
-0.049
0.028
0.051
0.014
0.034
0.021
0.008
0.022
0.076
0.045
0.044
0.011
-0.018
-0.057
0.038
0.06
0.057
-0.013
-0.043
-0.065
-0.024
0.101
0.046
0.053
0.011
-0.007
0.028
-0.002
0.019
0.026
0.044
0.05
0.018
0.009
0.017
0
0.013
0.024
-0.001
0.042
0.024
0.021
-0.004
0.02
0.018
0.013
0.022
-0.001
0.028
-0.022
-0.024
0.051
0.123
0.092
-0.008
-0.04
0.024
-0.023
-0.026
-0.036
-0.002
0.043
0.049
0.01
0.003
0.002
0.057
0.033
0.055
0.03
0.017
-0.004
0.044
0.003
0.012
0.017
0.012
0.011
0.026
0.016
-0.016
0.009
0.012
0.051
0.021
0.001
0.027
0.043
0.043
0.006
0.001
0.024
0.042
-0.028
0.022
0.029
0.013
-0.019
-0.008
0.022
0.022
0.047
0.036
-0.001
0.022
0.023
0.012
-0.004
-0.002
0.019
-0.012
0.021
0.018
0.011
0.033
0.022
0.053
0.06
0.028
-0.003
-0.04
-0.025
-0.022
0.004
0.055
0.052
0.051
0.025
-0.006
0.03
-0.075
0.004
0.092
0.114
-0.009
-0.065
0.039
0
0.01
0.034
0.01
0.011
0.045
-0.085
0.045
0.045
0.002
-0.017
0.044
0.06
0.045
0.031
0.037
-0.003
0.023
-0.005
0.004
0.028
0.013
-0.053
0.025
0.069
0.023
0.013
0.019
-0.01
0.023
-0.003
-0.004
0.017
0.001
0.052
0.018
-0.002
0.002
0.065
0.016
0.005
-0.012
0.019
0.048
0.041
0.018
0.031
0.046
0.039
0.002
0.054
0.011
0.024
-0.056
0.047
0.067
0.094
0.092
-0.037
0.027
0.055
-0.02
-0.101
0.042
-0.023
-0.004
0
0.063
0.031
0.028
0.018
0.034
0.01
0.012
0.009
0.012
0.021
0.066
0.029
0.04
0.041
-0.035
0.02
0
0.037
0.024
-0.028
0.009
-0.001
0.018
0.016
0.031
0.051
-0.001
0.029
-0.004
0.023
0.034
-0.03
0.014
0.032
0.038
0.035
0.004
0.012
0.022
0.044
0.01
0.009
0.038
0.06
0.037
0.039
0.033
0.004
-0.025
-0.004
-0.053
0.002
0.029
0.024
0.033
0.049
0.002
0.022
0.031
0.027
0.003
-0.005
0.029
0.026
0.01
0.022
0.009
0.051
0.018
0.033
-0.004
-0.043
-0.004
0.06
0.081
0.031
-0.015
0.03
-0.005
-0.005
0.026
0.018
0.036
0.017
0.002
0.03
0.003
-0.065
0.017
0.038
0.067
0.016
0.034
0.033
0.012
0.028
0.026
0.011
-0.061
0.033
-0.01
0.034
0
0.008
0.049
0.04
0.013
-0.041
-0.062
0.117
0.135
0.063
-0.016
0.005
0
-0.017
0.011
0.031
0.014
0.016
0.017
0.005
0.057
0.015
-0.009
0.009
0.053
0.028
0.024
-0.003
0.054
0.024
0.029
0.033
0.033
0.031
-0.023
-0.107
0.014
0.049
0.028
-0.018
-0.026
0.045
-0.009
0.048
0.076
0.056
0.04
0.042
-0.044
-0.037
0.055
-0.012
-0.003
-0.083
0.078
0.058
0.017
0.079
0.033
-0.027
-0.021
0.038
0.004
0.008
0.052
0.051
0.055
0.036
-0.031
-0.038
-0.06
-0.007
0.046
0.028
0.018
0.042
0.043
0.021
0.016
-0.037
0.02
0.017
0.009
0.014
0.007
0.026
0.024
0.031
0.003
-0.002
0.015
0.024
0.025
0.053
0.01
0.02
0.02
-0.011
-0.016
-0.042
0.05
-0.024
0.002
0.079
0.118
0.039
-0.028
0.023
-0.04
0.034
0.06
-0.006
-0.017
0.067
0.044
0.027
0.04
0.026
0.014
-0.035
-0.026
0.036
0.033
0.045
0.011
0.013
0.011
0.033
-0.015
0.057
0.06
0.057
0.044
-0.035
-0.045
0.015
0.071
0.033
-0.001
0.024
-0.003
0.013
0.051
0.07
0.031
0.064
0.027
-0.054
-0.032
-0.052
0.049
0.062
0.044
0.065
0.023
0.056
-0.032
-0.016
-0.083
0.056
0.019
0.042
0.08
-0.017
-0.006
0.041
0.038
0.036
0.011
0.047
0.033
-0.019
0.036
0.011
0.033
0.039
0.166
0.01
-0.053
-0.046
0.045
-0.02
0.031
0.024
0.012
-0.051
0.028
0.069
0.029
0.018
0.03
0.002
0.052
0.019
0.064
-0.03
0.002
0.029
-0.028
0.043
0.059
0.002
-0.022
0.037
0.025
-0.036
0.029
0.07
0.086
0.068
0.005
-0.017
-0.026
0.01
0.009
-0.015
0.079
0.003
0.06
0.015
0.02
0.031
-0.001
0.023
0.073
0.05
0
-0.007
0.019
0.023
-0.043
0.069
0.07
0.047
-0.052
0.025
-0.032
0.073
0.008
-0.051
0.017
0.032
0.051
0.01
0.001
-0.022
0.03
0.064
0.098
0.089
-0.042
-0.004
-0.022
-0.004
-0.029
0.04
0.002
0.023
0.03
0.008
0.04
0.005
0.029
0.001
0.016
-0.003
0.088
0.028
0.029
0.014
0.021
0.022
0.024
0.014
0.034
0.046
0.027
-0.028
0.049
-0.018
0.013
0.016
0.035
0.029
0.003
0.016
0.028
0.049
0.038
0.058
-0.025
-0.053
0.094
0.021
0.015
-0.005
0.046
0.022
0.032
0.027
-0.006
0.016
0.014
0.049
0.051
0.022
0.042
-0.025
-0.026
0.037
0.062
0.036
0.006
0.036
-0.037
-0.085
0.031
0.061
0.067
0.033
0
0.02
0.002
0.017
0.036
0.014
-0.019
0.011
0.028
0.038
0.005
-0.013
-0.015
0.013
0.038
0.034
0.031
0.038
0.025
0.023
0.032
0.005
0.014
0.005
0.014
0.011
0.017
0.034
-0.003
0.013
0.063
0.043
-0.008
-0.014
-0.051
-0.056
0
0.099
0.082
0.007
0.067
-0.011
0.005
0.018
0.007
0.023
0.03
0.038
0.05
0.029
0.025
0.009
0.027
0.003
0.022
-0.062
-0.021
0.065
0.086
0.032
-0.006
-0.009
0.007
-0.013
-0.049
0.021
0.073
0.067
0.051
-0.043
-0.019
0.009
0.039
0.045
0.05
0.004
0.026
0.003
-0.003
0.003
0.007
0.012
0.009
0.022
0.05
0.003
0.035
-0.006
0.001
0.018
0.036
0.009
0.02
0.009
-0.062
0.014
0.041
0.01
0.017
0.005
0.021
-0.012
0.008
0.009
0.04
-0.01
0.005
0.051
0.001
-0.012
0.029
0.025
0.034
0.002
-0.007
0.012
0.018
0.019
0.009
0.031
0.017
0.028
0.003
0.002
0.021
0.021
0.027
0.001
0.02
0.023
0.023
0.024
-0.006
0.022
0.014
-0.008
0.005
0.03
-0.004
0.009
0.013
0.036
0.022
0.041
0.002
0.017
0.01
0.024
-0.006
0.021
0.024
0.009
0.004
-0.019
-0.007
0.018
0.044
0.036
0.046
0.032
0.004
0.004
0.022
0.016
0.008
0.003
0.025
0.038
0.014
0.008
0.018
0.01
0.003
0.029
0.016
0.066
-0.003
-0.002
-0.047
-0.052
-0.015
0.105
0.021
0.005
0.043
0.02
-0.018
0.005
0.005
0.005
0.026
0.032
0.02
0
0.015
0.037
0.003
-0.019
0.066
0.008
0.056
0.008
0.081
-0.073
-0.059
0.027
0.111
0.05
-0.074
-0.029
-0.052
-0.003
0.085
0.058
0.048
0.095
-0.037
-0.063
0.083
0.069
-0.042
-0.012
0.012
-0.011
0.007
0.019
0.015
0.016
0.055
-0.036
-0.004
0.035
-0.001
0.018
0.028
-0.03
0.012
0.029
0.021
0.082
-0.009
-0.034
0.012
0.011
0.01
0.013
0.026
0.025
0.034
0.022
0.016
0.026
0.019
0.048
0.038
0.03
0.006
0.004
0.006
0.039
0.016
0.028
-0.009
0.029
-0.003
0.008
0.031
0.023
0.004
0.029
0.019
0.015
0.018
0.001
0.004
0.004
0.016
0.026
0.008
0.004
0.026
-0.006
0.031
0.026
0.006
0.035
0.037
0.013
0.027
-0.013
0.024
0.034
-0.008
0
0.011
0.02
0.003
0.021
0.009
0.018
-0.002
0.021
0.002
0.024
0.037
0.01
0.003
0.017
0.021
0.006
0.03
0.027
0.013
0.029
-0.026
0.016
0.068
0.037
-0.002
-0.009
0.049
0.009
-0.013
0.017
0.054
0.018
-0.004
-0.009
0.006
0.016
0.063
0.018
0.025
0.021
0.023
0.023
0.024
0.021
-0.054
-0.02
-0.027
0.025
-0.029
0.07
0.073
0.066
0.014
-0.002
-0.004
0.025
0.02
-0.002
0
-0.056
0
0.06
0.053
0.036
0.06
0
0.013
-0.021
0.019
0.015
0.044
-0.037
0.007
0.113
0.016
0.008
0.003
0.023
-0.009
-0.018
-0.016
-0.025
-0.037
0.056
0.056
0.043
0.042
0.022
0.012
0.027
0.026
0.056
0.013
0.012
-0.217
-0.034
0.04
0.077
0.045
0.045
0.032
0.048
0.041
0.053
0.026
0.049
-0.022
-0.025
-0.084
0.033
0.055
-0.028
-0.022
0.059
0.033
0.038
0.006
0.029
0.025
0.029
0.056
0.07
0.017
-0.012
-0.04
-0.042
-0.045
-0.015
0.034
0.031
0.096
0.097
0.092
0.027
-0.074
-0.037
-0.067
-0.041
0.064
0.074
0.016
0.02
0.031
0.001
0.004
0.045
0.04
-0.005
0.028
0.037
-0.016
-0.033
0.06
0.085
0.07
-0.026
-0.023
0.026
0.01
0.02
0.016
0.02
0.019
-0.002
-0.01
0.019
0.019
0.061
0.036
0.065
-0.009
0.006
-0.061
-0.024
0.038
0.077
0.061
0.048
0.026
0.008
0.02
-0.106
0.038
0.09
0.018
0.097
0.029
-0.094
-0.094
-0.033
0.102
0.113
0.016
0.037
0.017
0.042
0.022
0.012
0.091
0.016
-0.102
-0.017
-0.088
0.024
0.069
0.041
0.06
0.088
0.039
-0.015
-0.001
-0.037
-0.01
0.056
0.043
0.051
0.032
0.023
-0.085
0.079
0.064
0.027
0.038
0.009
0.024
0.017
0.074
0.061
0.019
-0.116
-0.036
-0.036
0.105
0.067
0.071
0.103
0.063
0.023
-0.062
0.005
-0.009
-0.028
0.066
0.12
-0.11
-0.023
0.029
0.014
0.062
0.029
0.004
0.034
0.047
0.048
0.032
0.02
0.031
0.022
0.017
0.002
0.02
0.022
0.042
0.038
-0.003
0.027
-0.076
0.018
0.039
0.042
0.06
-0.063
0.031
-0.008
0.026
0.051
0.025
0.042
0.058
0.005
0.053
0.001
-0.028
0.022
-0.1
-0.009
0.116
0.032
0
-0.049
0.067
0.064
0.029
0.032
0.026
0.042
0.035
-0.005
-0.072
0.019
0.057
0.036
0.021
-0.003
0.029
0.002
0.032
0.046
-0.007
0.007
0.007
0.047
0.057
0.061
0.03
0.072
-0.009
0.01
-0.028
0.054
0.006
-0.027
-0.089
0.031
-0.015
-0.021
0.101
0.069
0.023
0.014
0.097
0.062
0.044
0.013
-0.018
-0.079
0.001
0.064
0.031
0.026
0.011
0.018
0.029
0.034
0.036
0.054
0.015
-0.021
0.008
0.003
-0.021
0.052
0.001
0.047
0.032
0.023
0.033
0.039
0.015
0.022
0.02
0.002
0.09
-0.037
-0.004
0.067
0.02
-0.029
0.032
0.018
-0.004
0.002
-0.014
0.048
-0.002
0.036
0.025
-0.026
0.025
0.042
0.036
0.024
-0.091
-0.112
0.026
0.134
0.124
0.143
-0.074
-0.06
-0.017
0.092
0.052
0.062
0
-0.029
0.022
0.007
0.029
-0.007
0
-0.007
0.019
0.064
0.066
-0.093
0.014
0.102
0.056
0.018
0.002
0.004
0.047
0.024
0.039
0.033
0.027
-0.007
-0.054
0.133
-0.037
0.009
-0.05
0.007
0.058
0.029
0.168
-0.017
-0.002
-0.047
0.008
0.012
0.031
0.043
0.098
0.023
0.036
-0.02
-0.093
-0.034
0.012
0.074
0.041
0.014
0.03
0.022
0.015
0.019
0.011
0.014
0.007
0.027
0.045
0.029
0.036
0.013
0.006
0.027
-0.02
0.02
-0.009
0.025
0.02
0.005
-0.01
0.034
-0.043
0.027
0.042
-0.003
0.002
-0.063
0.046
0.02
0.01
0.017
0.024
0.047
0.004
0.006
0.017
0.022
0.034
-0.076
0.002
0.105
-0.023
0.044
-0.011
0.041
-0.06
-0.057
0.055
0.026
0.06
0.056
0.051
0.037
-0.128
-0.002
0.034
0.117
0.063
-0.066
0.045
0.04
-0.075
0
0.006
-0.012
0.029
-0.01
0.046
-0.011
0.08
0.099
0.01
-0.079
-0.011
-0.131
0.041
0.038
0.067
0.092
-0.014
-0.013
0.017
0.004
0.036
0.072
0.002
0.045
0.011
0.03
0.061
-0.029
0.011
-0.014
0.021
0.009
0.045
0.012
-0.022
0.011
-0.023
-0.01
0.007
0.04
0.012
0.011
0.014
-0.002
0.007
0
0.035
0.022
0.024
0.033
0.035
0.016
0.007
0.036
0.003
0.005
0.011
0.052
0.005
-0.01
-0.015
0.043
0.033
0.043
0.01
-0.003
0.023
-0.003
0.013
-0.012
0.002
0.047
-0.025
0.018
-0.003
0.051
-0.089
0.006
0.106
-0.008
0.067
0.04
0.009
0.011
0.024
0.078
-0.017
-0.083
-0.02
-0.024
0.027
0.041
0.066
0.045
-0.002
0.019
0
-0.048
0.061
0.034
0.062
-0.058
-0.061
0.062
0.066
0.063
0.001
-0.021
0.044
-0.009
-0.011
-0.004
-0.054
0.066
0.03
0.029
0.043
0.01
0.022
0.027
0.016
-0.006
0.026
0.019
0.024
0.017
0.002
0.017
0.016
0.022
0.026
0.004
0.019
-0.009
0.008
0.027
0.021
0.025
0.025
0.014
0.027
0.08
0.042
0.016
-0.019
-0.04
-0.105
0.031
0
0.049
0.06
0.023
-0.008
0.008
-0.025
0.057
0.015
0.019
0.043
-0.022
0.027
0.025
-0.011
0.06
0.062
0.025
-0.028
-0.015
-0.031
0.003
0.073
-0.045
-0.012
0.022
0.105
0.105
-0.024
-0.004
0.085
-0.036
-0.144
-0.054
-0.022
0.06
0.144
0.007
-0.017
0.072
0.058
-0.046
0.025
0.044
-0.055
0.019
0.059
0.047
0.047
-0.01
0.003
-0.021
0
-0.003
-0.022
0.025
0.041
0.028
0.047
0.011
0
0.019
0.008
0.008
0.025
0.037
-0.006
0.007
0.022
0.031
0.016
0.009
0.013
0.006
0.039
0.037
-0.023
0.012
0.016
0.021
-0.012
-0.004
0.023
0.026
0.008
0.015
0.021
-0.006
-0.03
0.016
0.022
0.024
0.017
0.016
0.033
0.023
0.009
0.004
0.003
0.024
0.014
0.007
0.025
0.03
0.049
0.005
0.015
0.041
0.006
-0.094
0.068
0.039
-0.014
0.031
0.013
-0.032
0.02
0.02
0.029
-0.007
0.02
0.019
0.001
0.016
0.005
0.012
0.042
0.039
0.022
-0.005
0.008
0.02
0
-0.002
0.006
0.037
-0.011
0.002
0.015
0.031
0.007
0.009
0.032
0.058
0.017
0.013
-0.012
0.013
-0.003
0.007
0.016
0.045
0.058
0.053
0.025
0.002
-0.039
-0.07
0.055
0.019
0.054
0.011
-0.027
-0.001
0.013
-0.001
0.083
0.016
0.009
-0.002
-0.12
-0.011
0.126
0.134
0.1
0.001
0.026
0.011
0.045
0.009
0.04
0.04
-0.114
0.06
-0.043
-0.01
0.041
0.004
-0.102
-0.147
0.053
0.134
0.071
0.005
-0.086
-0.099
0.085
0.069
0.092
-0.071
0.028
0.084
0.084
0.072
0.018
0.071
-0.017
-0.013
0.004
0.013
0.032
-0.005
-0.023
0.008
0.005
0.006
0.023
0.062
0.056
0.017
0.002
0.003
-0.03
-0.001
0.054
0.034
0.025
0.026
0.018
0.034
-0.003
-0.004
0.026
0.003
0.018
0.041
0.039
0.015
0.025
0.025
0.013
-0.02
0.005
0.01
-0.016
0.001
0.032
0.017
0.034
0.031
0.048
0.015
0.014
0.035
0.015
0.05
0
0.011
0.014
0.008
0.037
0.035
0.061
0.044
-0.007
0.095
-0.005
0.002
0.086
-0.014
-0.057
-0.042
0.001
-0.03
0
0.079
-0.156
-0.066
0.057
0.118
0.149
0.237
0.137
0.007
-0.176
0.006
-0.127
0.094
-0.042
-0.105
-0.031
-0.015
0.019
0.087
0.128
0.135
0.012
0.004
0.005
-0.042
0.09
0.08
0.107
0.041
-0.131
-0.121
-0.083
0.088
0.104
0.166
0.103
-0.033
-0.047
-0.056
0.034
0.016
0.025
0.038
0.042
0.042
0.077
0.074
0
0.053
-0.029
-0.011
-0.023
-0.036
-0.043
0.032
0.063
0.047
0.034
0.039
0.044
0.004
0.014
-0.03
0.065
0.009
0.025
0.019
0.043
0.025
0.037
0.05
0.008
0.035
0.021
0.017
0.08
-0.033
-0.136
0.046
0.067
0.102
0.089
0.023
0.073
-0.168
-0.129
0.052
0.059
0.003
0.077
0.029
0.03
0.007
0.091
0.026
0.078
-0.013
-0.054
0.025
-0.057
0.084
0.065
-0.021
-0.058
0.056
-0.006
0.013
-0.02
0.031
-0.018
-0.002
0.098
0.05
0.005
0.023
0.03
0.032
0.034
0.006
0.025
0.009
0.025
0.021
0.015
0.032
0.02
0.017
0.039
0.016
0.051
-0.049
0.004
0.075
0.134
0.045
-0.092
-0.125
-0.02
-0.112
0.102
0.093
0.036
0.114
0.001
-0.04
-0.03
0.038
0.023
-0.01
0.023
0.013
0.004
0.043
0.035
0.038
0.031
0.009
-0.001
0.003
-0.005
0.023
0.02
-0.002
0.034
0.056
0.012
0.007
0.023
0.002
0.005
0.009
0.015
0.021
0.024
0.025
0.026
0.019
0.018
-0.012
0.024
0.011
0.042
0.057
0.03
0.011
0.032
0.036
-0.027
0.026
0.018
0.022
0.065
0.053
0.005
-0.032
-0.117
-0.146
0.049
0.117
0.039
-0.026
0.133
0.004
-0.071
0.054
0.078
-0.087
0.022
0.052
0.024
0.083
-0.066
-0.005
0.041
-0.019
0.029
0.112
0.011
0.001
0.037
-0.235
0.014
-0.023
0.185
0.056
-0.121
-0.017
0.035
0.041
0.002
0.023
0.014
0.026
0.031
0.021
0.029
0.024
0.007
0.037
0.022
0.038
0.006
0.029
0.029
0.044
-0.001
0.017
-0.012
0.003
0.034
-0.03
0.01
0.048
-0.026
0.005
0.024
0.005
-0.001
0.024
0
0.053
-0.01
0.028
0.035
0.027
0.023
-0.015
-0.002
0.002
-0.025
-0.018
0.004
-0.006
0.04
0.01
0.02
0.022
0.036
0.02
0.02
-0.02
-0.022
0.016
0.032
0.021
0.018
0.038
0.099
0.047
0.014
0.007
-0.023
-0.003
0.004
0.005
0.019
0.001
0.007
-0.016
0.021
-0.013
0.004
-0.013
-0.001
0.006
0.034
0.015
0.008
0.006
0.001
0.025
0.027
0.033
0.049
0.011
0.032
0.03
-0.004
0.026
0.034
0.044
0.027
-0.027
0.016
0.018
0.014
0.007
0.036
0.008
0.035
-0.019
-0.003
-0.094
0.13
-0.075
-0.043
0.116
0.018
0.025
0.045
0.093
-0.023
-0.12
0.047
0.004
-0.005
-0.08
0.009
0.071
0.055
0.017
-0.069
0.089
0.021
0.058
0.006
0.004
0.027
0.059
-0.047
-0.02
0.046
-0.033
0.018
0.076
0.12
0.016
0.013
-0.024
-0.061
-0.033
0.032
0.023
0.036
0.049
-0.007
0.009
-0.005
0.003
0.036
0.048
0.014
0.007
-0.022
0.073
-0.01
-0.037
0.117
0.128
0.025
-0.062
0.048
-0.021
0.023
0.086
0
-0.058
0.043
0.025
-0.031
-0.048
-0.186
0.102
0.138
0.162
0.33
-0.057
0.017
0.012
-0.199
-0.242
-0.093
0.109
0.066
0.023
0.107
0.174
0.144
0.001
-0.032
-0.105
-0.159
0.03
-0.047
-0.009
0.103
0.209
0.171
-0.007
0.011
-0.115
-0.109
-0.125
-0.201
-0.035
0.122
0.2
0.132
0.05
0.029
0.009
0.009
0.004
0.044
-0.015
-0.038
-0.023
0.019
0.071
-0.012
-0.006
0.03
0.058
0.016
0.032
0.035
0.017
0.014
0.041
0.04
-0.039
-0.037
0.02
0.017
-0.036
0.081
0.111
-0.004
-0.096
-0.009
0.12
0.021
-0.109
0.023
0.075
0.136
0.042
0.14
-0.081
-0.367
-0.016
0.195
0.073
-0.05
0.059
0.208
0.116
0.079
-0.206
-0.021
-0.018
-0.04
0.212
0.046
-0.39
-0.193
0.021
0.079
-0.02
0.123
0.143
0.018
-0.059
0.106
0.133
0.009
0.052
0.05
-0.023
-0.22
-0.082
0.018
-0.094
-0.054
0.111
0.064
0.066
0.104
0.043
0.072
0.044
0.003
0.019
-0.028
0.004
0.067
0.052
-0.033
0.066
0.071
-0.093
-0.048
0.087
-0.003
-0.091
-0.054
0.021
-0.07
0.038
0.123
0.042
0.011
-0.008
0.04
-0.047
0.116
0.173
0.046
-0.001
0.115
0.023
-0.255
-0.275
0.025
0.242
0.227
0.072
-0.03
0.021
0.141
-0.422
-0.05
0.188
-0.1
0.136
0.113
0.157
-0.024
-0.057
-0.093
-0.344
0.038
0.113
0.046
0.053
0.271
0.263
-0.114
-0.114
-0.114
-0.148
-0.072
0.043
0.062
0.033
-0.084
-0.063
0.191
0.137
0.163
-0.067
-0.045
0.141
0.303
0.344
0.038
-0.176
-0.183
-0.284
-0.39
-0.214
-0.109
-0.133
0.195
0.398
0.358
0.275
-0.018
0
-0.502
-0.569
0.063
0.719
0.423
-0.2
-0.425
0.316
0.327
-0.081
0.183
0.081
-0.285
-0.138
-0.078
-0.028
-0.014
0.127
0.244
0.119
-0.197
-0.115
-0.07
0.047
0.064
0.13
0.098
0.053
-0.02
0.077
0.026
0.097
-0.047
-0.071
0.113
0.061
-0.18
0.081
0.155
0.047
-0.051
-0.053
0.058
0.067
0.134
-0.027
-0.083
-0.095
-0.179
-0.229
0.271
0.29
-0.012
0.045
-0.106
-0.176
0.052
0.128
0.092
0.122
0.036
0.318
-0.049
-0.116
0.258
0.116
-0.397
-0.207
-0.102
0.101
0.22
0.022
0.104
0.142
0.255
-0.076
-0.059
0.209
0.039
0.029
-0.008
-0.446
-0.047
-0.055
-0.306
0.076
0.307
0.04
0.012
0.011
0.07
0.091
0.031
0.264
0.169
0.03
-0.197
-0.101
-0.156
-0.073
0.188
0.468
0.102
-0.175
-0.096
0.342
0.18
0.145
-0.735
-0.196
-0.425
0.112
-0.279
0.108
0.191
0.052
0.056
0.212
0.141
0.085
0.057
0.204
0.062
0.113
-0.025
0.026
0.128
0.084
-0.083
-0.369
0.026
0.034
-0.077
0.14
0.046
-0.086
0.056
0.003
0.043
-0.125
-0.071
0.14
0.11
0.094
0.065
0.012
0.016
0.012
0.058
0.081
0.238
0.116
0.004
-0.038
-0.133
-0.149
0.084
0.118
-0.233
-0.241
0.05
0.048
-0.236
-0.287
0.026
0.39
0.24
0.02
-0.109
0.189
0.292
0.112
-0.079
-0.041
-0.109
-0.005
-0.52
0.313
-0.195
0.274
0.239
-0.155
-0.482
0.027
0.377
0.271
0.093
-0.014
0.099
0.164
-0.036
-0.609
-0.267
-0.026
0.209
0.113
0.039
0.031
0.13
0.415
0.323
0.06
-0.482
-0.69
0.085
0.287
-0.032
0.002
-0.064
-0.109
0.397
0.16
-0.142
-0.149
-0.071
0.016
0.217
0.061
0.045
-0.023
0.03
0.049
-0.06
-0.056
-0.014
0.053
0.022
0.259
0.252
0.43
0.364
-0.443
-0.597
-0.374
-0.325
-0.512
0.095
0.537
0.068
0.173
0.156
0.1
-0.363
0.06
0.295
0.457
0.35
0.15
-0.294
-0.175
-0.272
0.128
0.25
0.305
-0.188
-0.384
-0.144
-0.045
0.48
-0.19
-0.209
-0.326
-0.382
0.168
0.322
0.153
0.189
0.057
0.226
0.184
-0.233
-0.424
-0.348
0.331
0.185
0.316
0.135
-0.139
0.189
0.164
-0.221
-0.376
-0.37
-0.304
0.133
0.321
0.183
0.164
0.322
0.382
-0.113
-0.49
-0.375
-0.403
0.325
-0.025
-0.254
0.605
0.192
-0.119
0.071
-0.047
-0.256
-0.427
-0.129
0.066
0.468
0.023
0.18
-0.029
0.023
0.111
-0.109
0.039
0.124
0.207
0.116
-0.229
0.267
0.473
-0.032
-0.426
-0.573
-0.262
-0.007
0.137
0.292
-0.398
0.14
0.199
0.705
0.201
-0.42
-0.426
-0.077
0.282
0.325
0.176
0.013
-0.264
-0.131
0.287
0.127
0.211
0.039
-0.609
-0.273
-0.121
0.351
0.264
0.182
0.086
-0.188
0.109
0.078
-0.096
-0.107
-0.276
-0.098
0.058
0.323
0.105
-0.365
0.122
0.216
-0.347
0.215
0.293
-0.14
0.025
0.051
-0.029
0.237
0.137
-0.01
0.181
0.039
-0.049
0.036
-0.272
-0.181
0.137
-0.121
-0.332
0.115
0.326
0.041
0.007
0.023
0.003
-0.021
0.061
0.085
0.073
0.053
0.051
-0.066
-0.338
-0.203
0.09
0.316
0.156
-0.091
-0.042
0.089
0.134
-0.113
-0.006
0.185
-0.039
0.029
0.388
0.127
0.056
-0.481
-0.466
-0.704
0.18
0.417
0.487
0.245
0.16
-0.447
-0.383
0.062
0.207
0.261
0.23
0.202
-0.003
-0.243
-0.273
-0.147
0.078
0.233
-0.073
0.073
0.021
-0.021
0.301
-0.122
-0.093
0.012
-0.007
0.115
-0.036
-0.119
-0.012
0.042
-0.214
0.394
0.084
-0.008
0.02
0.064
0.071
0.125
0.097
-0.037
-0.205
-0.134
-0.013
0.139
0.013
-0.217
-0.193
-0.186
0.29
0.173
0.075
-0.12
-0.251
-0.049
0.257
0.242
0.184
0.098
-0.17
0.15
-0.108
0.35
-0.368
-0.383
0.099
0.206
-0.062
0.166
-0.247
-0.211
0.11
0.077
0.746
0.351
-0.221
-0.381
-0.035
-0.168
0.221
0.246
-0.906
-0.043
0.305
0.204
-0.003
0.089
0.037
-0.038
0.048
0.275
0.191
-0.063
-0.062
-0.163
-0.011
0.09
-0.034
-0.358
0.165
0.16
-0.048
0.095
0.08
0.108
0.071
0.009
-0.061
-0.096
0.047
-0.265
-0.093
-0.046
0.009
-0.099
0.105
0.409
-0.044
-0.112
-0.051
0.06
0.217
-0.007
-0.031
-0.047
0.285
0.065
-0.133
-0.314
-0.031
0.285
0.105
0.106
0.085
0.199
-0.017
-0.252
0.136
0.215
-0.199
-0.328
-0.042
0.053
0.103
0.12
0.075
-0.096
-0.047
0.217
0.567
-0.389
-0.024
-0.113
-0.78
-0.305
0.564
0.551
-0.047
0.513
0.248
-0.028
-0.274
-0.264
-0.001
0.018
0.035
0.118
0.144
0.217
0.319
0.143
-0.075
-0.56
-0.236
-0.005
0.126
-0.142
-0.526
0.102
0.242
-0.117
0.042
0.274
0.267
0.035
-0.32
-0.149
0.153
0.158
0.244
0.101
-0.048
-0.006
0.057
0.003
-0.044
-0.041
0.147
-0.1
-0.011
-0.03
-0.292
0.252
0.1
0.011
0.048
0.085
0.192
0.378
0.247
-0.172
-0.427
-0.374
-0.104
0.127
0.121
0.035
-0.156
0.137
0.11
-0.067
-0.002
0.238
0.168
-0.069
-0.294
0.057
0.095
0.041
-0.068
0.069
0.498
0.658
-0.271
-0.33
-0.711
-0.188
0.452
0.209
-0.301
-0.324
-0.11
0.461
0.061
0.104
0.012
0.142
0.049
-0.06
0.209
-0.235
-0.243
-0.137
0.056
0.366
0.183
0.091
0.205
-0.23
-0.092
-0.005
0.123
0.009
0.071
0.063
-0.078
-0.119
0.026
0.092
0.148
-0.06
-0.007
-0.157
0.042
-0.051
0.088
0.167
0.213
0.165
0.196
-0.258
-0.389
0.07
0.131
-0.572
0.11
0.15
0.127
0.093
0.136
0.225
0.098
0.085
-0.051
-0.119
-0.073
0.029
0.1
-0.026
-0.084
-0.244
0.154
0.225
-0.11
-0.299
0.143
0.327
0.448
0.028
0.332
-0.489
-0.609
-0.099
-0.058
0.148
0.129
0.097
0.123
-0.097
-0.175
0.131
0.533
0.045
0
-0.213
-0.197
0.039
-0.034
0.214
0.485
-0.128
-0.496
-0.114
0.305
-0.281
-0.045
0.26
-0.039
0.19
0.105
0.126
0.013
-0.028
0.038
0.023
0.013
-0.011
-0.017
-0.007
0.002
-0.074
0.023
0.107
0.177
-0.002
-0.247
-0.117
-0.235
0.193
0.292
0.339
-0.129
-0.034
-0.042
-0.185
0.229
-0.164
-0.181
0.223
0.229
-0.001
-0.01
-0.046
-0.078
0.177
-0.013
-0.064
-0.096
0.163
0.106
0.271
-0.108
-0.202
0.055
0.153
-0.117
-0.283
-0.395
0.107
0.571
-0.155
-0.169
-0.1
0.077
0.129
-0.046
0.273
0.128
-0.273
0.055
0.002
-0.066
0.102
0.067
0.058
0.113
0.005
0.008
-0.124
0.038
0.186
0.145
0.217
0
-0.132
-0.033
-0.05
-0.026
-0.2
-0.375
0.254
0.261
0.279
0.255
-0.114
-0.159
0.115
0.187
-0.427
0.007
0.086
0.028
-0.347
0.076
-0.055
-0.313
0.309
0.04
0.004
-0.065
0.033
0.07
0.083
0.099
0.011
0.14
0.425
0.034
-0.341
-0.178
0.001
0.195
-0.088
-0.416
-0.147
0.334
0.357
-0.024
-0.239
0.094
0.106
0.088
-0.122
0.129
0.115
-0.312
-0.026
-0.031
0.399
0.183
-0.065
-0.153
0.004
-0.02
0.032
0.123
-0.103
-0.038
-0.012
0.089
-0.023
-0.225
0.243
0.43
0.075
0.073
0.281
0.143
-0.005
-0.518
-0.481
0.271
0.204
-0.218
-0.396
0.332
0.531
0.19
-0.295
-0.372
-0.146
-0.209
-0.062
0.325
0.238
0.134
0.17
0.541
-0.126
-0.5
-0.059
0.155
0.167
0.219
-0.513
-0.191
0.008
0.053
-0.151
0.302
0.277
0.58
-0.011
-0.383
-0.319
0.168
-0.212
0.057
-0.178
0.101
0.13
0.056
0.146
0.366
-0.343
-0.7
0.247
0.867
0.504
-0.28
-0.602
0.06
-0.069
-0.038
-0.13
0.208
-0.161
0.179
0.2
0.366
-0.098
-0.257
-0.147
-0.079
0.058
0.083
0.006
-0.148
-0.054
0.106
0.099
0.208
-0.057
-0.311
-0.058
-0.046
0.087
0.412
0.234
-0.061
-0.456
-0.603
0.192
0.312
0.152
0.033
-0.028
0.05
-0.035
-0.07
0.09
0.11
0.089
0.306
0.276
0.247
-0.261
-0.523
-0.618
-0.303
0.156
0.267
0.354
0.29
0.095
-0.437
-0.208
0.132
0.259
0.164
0.213
0.064
-0.02
0.026
-0.204
-0.428
-0.13
0.262
0.083
-0.082
-0.299
-0.007
0.042
0.434
0.42
0.048
-0.345
-0.222
0.188
0.146
0.164
-0.356
-0.331
0.096
0.223
0.199
-0.025
-0.079
-0.293
0.376
0.423
-0.324
-0.424
0.3
-0.536
0.361
0.206
-0.088
-0.07
0.696
-0.025
-0.1
-0.451
-0.203
0.049
0.038
0.188
0.257
-0.126
0.042
0.08
0.191
-0.012
0.033
-0.126
0.336
0.248
-0.378
-0.613
0.046
0.154
-0.051
0.414
-0.39
-0.131
0.158
0.236
0.158
-0.094
0.118
0.154
-0.149
-0.007
-0.055
-0.055
-0.089
0.056
0.174
0.228
0.377
0.069
-0.519
-0.176
0.203
-0.383
0.395
-0.353
-0.33
0.588
0.132
0.087
-0.312
-0.312
0.039
0.259
0.464
-0.056
0.102
0.255
0.064
-0.114
0.082
-0.396
0.016
0.356
0.122
0.064
0.117
-0.452
-0.048
0.098
0.117
0.055
-0.015
-0.077
0.076
0.036
-0.089
-0.191
0.19
-0.031
-0.29
0.009
0.312
0.629
-0.052
-0.36
-0.415
-0.32
-0.372
0.375
0.439
0.18
-0.096
-0.066
0.038
0.073
-0.184
0.293
0.314
0.081
0.116
-0.086
-0.005
-0.361
-0.174
-0.475
0.485
0.477
-0.403
-0.096
-0.164
0.227
0.477
0.281
-0.28
-0.468
0.12
0.244
0.157
-0.678
0.096
0.385
0.02
-0.053
0.018
0.076
0.111
0.077
0.063
-0.063
-0.086
0.159
0.241
-0.274
-0.376
0.357
0.355
-0.022
-0.333
-0.374
-0.021
0.344
0.554
0.465
-0.8
-1.002
-0.169
0.562
0.24
0.186
-0.171
-0.34
0.331
0.321
0.154
-0.2
0.157
0.118
-0.178
0.034
0.08
-0.029
0.059
-0.066
0.049
-0.013
0.134
-0.009
-0.118
-0.195
-0.118
0.447
0.451
-0.237
-0.656
0.076
0.194
0.045
-0.089
-0.106
-0.457
0.241
0.609
0.267
-0.363
-0.075
0.008
-0.04
-0.007
0.503
0.443
-0.015
-0.266
-0.298
-0.114
0.145
-0.014
0.018
-0.17
-0.072
0.124
0.041
-0.181
0.092
0.355
-0.013
-0.297
-0.057
-0.053
0.015
0.148
-0.036
0.005
0.091
0.108
0.059
-0.221
0.161
0.15
-0.028
-0.171
0.119
0.011
0.022
0.001
-0.028
-0.001
0.105
0.048
0.212
-0.297
0.26
-0.106
-0.051
-0.283
0.007
0.13
-0.114
0.307
0.024
0.061
0.252
0.1
-0.194
-0.514
0.334
0.425
-0.143
-0.195
-0.389
0.196
-0.116
0.037
0.062
0.533
-0.104
-0.225
-0.084
-0.078
0.219
0.213
0.169
0.091
-0.115
-0.192
-0.009
0.04
0.099
0.038
-0.069
-0.199
-0.094
0.036
0.1
0.038
0.076
0.149
-0.016
-0.036
-0.15
0.009
0.329
0.146
-0.107
-0.547
-0.035
0.189
0.221
0.1
0.038
-0.036
0.361
0.482
-0.844
-0.573
0.24
-0.273
0.539
-0.163
0.17
0.208
0.031
-0.11
0.165
0.066
-0.134
-0.09
0.051
0.206
0.018
-0.158
-0.179
-0.017
0.341
-0.209
-0.048
-0.034
-0.017
0.85
0.397
-0.334
-0.665
-0.446
0.545
0.321
0.23
-0.497
0.212
-0.129
-0.265
0.06
0.089
-0.044
0.235
-0.302
0.245
0.343
-0.052
0.209
0.456
-0.327
-0.266
-0.146
0.18
-0.02
-0.543
0.141
0.391
-0.336
-0.14
0.399
0.074
-0.082
0.15
-0.02
-0.373
-0.031
-0.222
0.05
0.111
0.378
0.28
-0.1
-0.234
-0.141
0.69
0.099
-0.3
-0.632
0.024
0.223
0.158
0.067
-0.072
0.007
-0.191
0.074
0.279
-0.1
0.26
-0.24
0.221
0.427
0.069
-0.33
-0.278
-0.029
0.022
0.116
0.165
0.07
0.142
0.536
0.111
-0.474
-0.951
-0.042
0.304
0.079
0.047
-0.555
0.1
0.332
-0.2
0.169
0.544
0.161
-0.166
-0.028
0.286
-0.026
-0.145
-0.163
0.025
0.092
0.207
0.027
-0.527
-0.042
0.241
0.248
0.504
-0.079
-0.192
0.011
-0.312
0.072
-0.054
0.092
-0.578
-0.028
0.09
-0.204
-0.201
0.168
0.797
0.394
-0.04
0.185
0.044
0.032
-0.622
-0.194
0.048
0.287
-0.284
0.027
0.128
0.121
-0.222
-0.004
-0.018
-0.061
0.076
0.252
0.237
0.398
0.294
-0.46
0.094
-0.03
-0.224
-0.293
-0.131
0.226
0.462
-0.182
0.168
0.193
0.472
-0.359
-0.229
-0.492
-0.07
0.176
-0.466
0.164
0.215
-0.069
-0.179
0.315
0.361
0.281
0.108
0.349
0.206
-0.406
-0.636
-0.082
-0.084
-0.223
-0.302
-0.181
0.038
0.552
0.001
-0.166
-0.078
1.053
0.695
0.459
-0.503
-0.492
-0.385
0.242
-0.106
-0.315
0.173
-0.101
0.3
0.546
0.301
-0.01
-0.862
0.087
-0.11
-0.348
0.056
0.059
0.235
0.186
0.248
0.162
-0.069
0.028
0.156
0.213
-0.074
-0.2
-0.587
0.399
0.169
-0.307
0.156
-0.098
0.349
0.157
-0.3
-0.058
-0.109
0.165
-0.185
-0.034
0.501
0.328
-0.557
0.099
0.251
0.356
-0.265
-0.075
-0.202
-0.264
-0.115
0.033
0.327
-0.095
0.12
-0.487
0.014
0.664
0.033
0.342
0.309
-0.477
0.087
0.589
0.432
-0.22
-0.897
-0.519
0.718
1.079
-0.569
-0.409
-0.137
0.059
-0.707
-0.452
0.514
0.461
0.252
-0.214
-0.284
-0.118
-0.105
-0.038
0.009
0.221
-0.101
0.224
0.507
0.526
-0.243
0.675
0.373
-0.863
0.081
-0.088
0.661
-0.016
-0.385
-0.34
-0.105
0.245
-0.017
0.046
0.172
-0.136
-0.274
-0.7
0.13
0.38
-0.05
-0.309
0.317
0.015
-0.089
0.4
0.637
0.144
-0.174
-1.021
0.03
0.437
0.104
-0.261
0.053
0.163
0.064
0.19
-0.001
-0.656
-0.45
0.228
0.56
0.103
-0.08
-0.099
0.118
-0.239
0.011
0.303
0.426
0.419
-0.268
-0.033
-0.233
-0.468
0.584
-0.22
0.036
0.034
0.084
0.052
-0.076
0.168
0.301
0.407
-0.412
-0.13
-0.11
-0.171
-0.407
-0.042
0.232
0.092
0.054
0.592
0.182
0.383
-0.196
0.002
-0.193
-0.698
0.074
0.148
-0.133
0.093
0.47
-0.135
0.029
0.21
0.478
0.339
-0.199
-0.52
-1.257
-0.561
0.301
0.563
0.437
0.22
0.036
0.016
-0.223
0.231
0.027
0.243
0.143
-0.63
-0.585
0.579
0.514
0.119
0.008
0.312
-0.605
-0.076
-0.104
-0.036
-0.008
0.031
0.103
0.086
-0.035
0.343
0.111
-0.627
-0.246
0.469
-0.143
0.041
0.191
0.059
0.057
0.178
0.231
0.092
-0.212
-0.148
0.142
0.007
0.028
0.028
-0.214
0.152
-0.351
0.388
-0.002
-0.533
-0.107
0.322
0.054
-0.126
0.157
0.124
0.074
-0.024
0.033
0.154
0.672
0.536
-0.376
-1.867
0.061
0.026
-0.336
0.924
0.676
0.226
0.183
-0.39
0.094
0.176
-0.187
-0.419
-0.178
-0.05
0.426
0.487
-0.05
-0.007
-0.33
-0.608
0.252
0.117
-0.542
0.514
0.586
0.865
-0.115
-0.579
-0.336
0.274
0.007
0.11
-0.14
-0.135
-0.346
0.24
-0.173
-0.29
0.129
0.348
0.144
-0.333
0.224
0.485
-0.217
-0.215
0.166
0.436
-0.129
-0.424
-0.295
0.422
-0.262
0.145
0.401
-0.613
0.538
0.5
0.043
-0.523
-0.114
0.023
0.214
0.204
-0.125
-0.262
0.132
-0.098
-0.122
0.13
0.203
-0.102
0.003
-0.062
-0.179
-0.087
0.47
0.285
0.346
-0.184
-0.389
-0.056
-0.076
0.135
0.16
-0.078
0.08
0.14
-0.143
0.248
0.312
0.16
-0.397
-0.187
-0.26
-0.077
-0.478
0.303
0.343
-0.483
-0.23
0.32
0.874
-0.486
0.012
0.507
0.347
0.038
-0.673
0.147
0.429
-0.237
-0.137
-0.33
-0.137
0.179
-0.204
0.482
0.618
-0.094
-0.131
-0.3
-0.113
0.147
0.135
0.097
-0.091
-0.156
0.09
0.279
0.133
-0.134
-0.182
0.325
-0.704
0.267
0.191
0.079
-0.256
-0.422
0.449
0.497
0.249
-0.805
-0.381
0.013
0.159
0.303
0.038
0.056
0.037
0.055
-0.06
0.06
0.071
0.004
-0.018
-0.02
-0.027
0.042
0.013
-0.001
0.015
0.103
0.072
0.068
0.211
-0.298
-0.212
-0.026
0.103
0.179
-0.01
0.181
0.023
-0.32
-0.178
0.151
0.666
-0.134
-0.093
-0.094
0.022
-0.332
0.021
0.485
-0.1
-0.141
-0.006
0.125
-0.065
0.03
0.008
-0.152
0.022
0.997
0.069
-1.537
0.147
-0.055
0.432
0.148
0.065
0.029
0.674
0.225
0.012
-0.587
-0.417
0.353
0.108
-0.283
-0.337
-0.3
-0.823
0.244
0.798
0.461
0.123
0.038
0.28
0.154
-0.189
-0.628
-0.062
0.339
-0.413
0.025
0.02
0.424
0.406
0.173
-0.169
-0.386
0.119
0.075
-0.16
-0.297
0.056
0.193
0.464
-0.014
-0.428
-0.178
0.1
0.246
-0.058
0.062
-0.028
-0.257
0.623
0.188
-0.3
0.286
0.202
0.014
0.412
-0.472
-0.688
-0.206
0.018
-0.29
0.09
0.072
-0.01
-0.084
-0.301
0.429
0.118
-0.015
0.706
0.381
-0.11
-0.156
-0.561
-0.183
0.299
-0.164
-0.058
0.075
0.424
0.172
-0.134
-0.206
-0.108
0.185
-0.053
0.05
-0.096
0.136
-0.13
0.044
0.128
-0.029
-0.056
0.281
0.346
-0.46
-0.967
-0.089
0.32
1.493
0.19
-0.265
-0.617
-0.033
0.081
0.061
-0.02
0.008
-0.013
-0.006
0.039
0.233
0.248
-0.009
-0.275
-0.322
-0.032
0.22
0.134
0.009
-0.159
0.221
-0.376
-0.203
0.33
0.251
0.126
0.072
0.161
0.192
0.125
0.1
-0.399
-0.067
0.294
-0.409
-0.141
0.063
0.055
-0.004
0.226
-0.347
-0.016
0.257
0.073
0.034
0.138
-0.334
0.288
0.443
-0.067
-0.381
0.114
0.207
-0.363
0.058
0.085
0.059
-0.031
0.062
-0.021
-0.197
-0.099
0.549
0.174
0.005
-0.349
0.044
-0.192
0.261
-0.031
-0.19
0.077
0.251
0.438
0.341
-0.268
-0.529
-0.389
0.034
0.235
0.012
-0.023
0.235
0.163
0.204
-0.028
0.303
-0.347
-0.508
-0.242
0.272
0.392
0.203
0.013
-0.309
-0.158
0.401
0.168
-0.25
0.28
0.247
-0.22
-0.073
0.052
-0.122
-0.447
-0.358
0.195
0.197
0.092
0.121
0.081
0.11
-0.055
-0.049
-0.014
-0.136
0.12
0.06
0.018
0.118
0.299
-0.239
-0.093
0.085
0.043
0.096
0.194
0.21
-0.013
-0.848
-0.189
0.556
0.363
0.459
-0.162
-0.019
-0.575
-0.257
-0.537
0.234
-0.034
0.321
0.231
0.029
-0.11
0.066
0.048
0.141
-0.037
0.074
0.162
-0.026
-0.149
-0.115
0.068
0.01
0.152
-0.219
0.086
0.003
0.012
0.108
0.083
0.031
0.068
0.111
0.029
-0.002
0.006
-0.089
-0.06
0.263
-0.218
-0.008
0.254
-0.036
-0.071
-0.117
0.022
-0.025
-0.369
-0.2
0.849
0.094
0.286
-0.072
-0.369
-0.054
0.086
-0.057
-0.076
0.057
0.05
0.196
0.201
0.042
0.016
-0.188
0.085
0.115
-0.071
-0.019
0.065
0.027
-0.002
0.066
-0.007
-0.012
0.047
-0.058
0.145
-0.113
0.061
-0.136
-0.265
0.29
0.084
0.04
0.048
0.145
0.083
0.027
-0.177
-0.018
-0.099
-0.173
0.096
0.179
0.041
0.065
0.016
0.092
-0.005
-0.008
0.135
0.193
0.08
-0.214
-0.225
0.035
-0.212
-0.512
0.202
0.611
0.034
0.255
0.079
0.155
0.056
-0.266
-0.005
-0.052
0.234
0.058
-0.661
-0.243
0.182
0.266
0.05
0.428
0.377
-0.271
-0.36
-0.379
0.068
0.11
0.505
0.575
0.003
-0.607
-0.295
0.198
-0.05
-0.034
0.06
0.098
0.021
0.054
0.117
0.131
0.115
0.284
0.097
0.123
-0.36
-0.062
-0.201
-0.33
0.073
-0.004
0.29
0.138
-0.003
-0.233
0.32
0.163
0.154
-0.308
-0.405
0.16
0.047
0.058
0.214
0.13
0.008
-0.082
-0.161
0.016
0.207
0.211
0.318
-0.248
-0.715
-0.229
0.227
0.066
0.319
-0.476
-0.713
0.653
0.857
-0.163
0.175
-0.274
-0.076
0.394
0.194
-0.076
-0.318
0.075
-0.009
-0.24
0.092
0.081
0.087
0.282
-0.148
-0.027
0.081
0.172
-0.175
-0.383
0.246
0.433
-0.298
-0.158
0.008
0.081
-0.091
0.076
-0.022
-0.011
0.292
0.589
0.149
-0.255
-0.583
-0.162
-0.307
0.23
0.011
0.298
0.324
-0.275
-1.25
-0.007
0.562
0.23
0.575
0.335
0.105
-0.065
-0.501
-0.642
0.207
0.466
0.22
-0.37
-0.121
0.022
0.325
0.273
0.17
-0.087
-0.077
0.132
0.296
0.146
-0.176
-0.251
-0.279
-0.579
0.092
0.131
0.265
0.376
0.15
-0.53
-0.067
-0.031
0.175
0.069
0.161
-0.099
0.09
-0.011
0.18
0.082
0.243
-0.023
-0.164
-0.181
0.076
0.045
0.387
0.219
-0.088
-0.216
-0.285
-0.085
0.034
0.343
-0.057
-0.091
0.023
-0.668
-0.433
0.589
0.566
0.223
-0.024
-0.202
-0.066
-0.104
0.017
0.08
0.264
0.583
0.4
-0.457
-0.33
-1.021
0.121
0.585
-0.232
0.178
-0.008
0.062
0.281
-0.014
0.008
0.09
-0.051
0.39
0.147
-0.418
-0.538
-0.132
0.111
-0.106
0.337
0.165
-0.083
-0.092
-0.005
0.196
0.171
0.419
-0.05
0.027
0.264
-0.194
-0.269
0.105
0.347
-0.002
0.212
0.228
-0.143
-0.457
-0.644
-0.732
0.529
-0.088
0.206
0.206
-0.064
-0.283
0.086
0.323
0.342
0.028
-0.381
-0.405
0.484
0.603
-0.018
0.05
0.326
0.718
0.064
-0.095
-0.445
-0.538
-0.843
-0.523
0.414
0.142
0.562
0.434
0.016
-0.367
-0.086
0.653
0.268
-0.3
-0.493
0.045
-0.301
0.352
0.412
0.188
-0.602
0.199
0.14
0.126
-0.06
-0.026
0.386
-0.693
-0.277
0.829
0.598
-0.001
-0.739
-0.624
-0.554
0.121
0.745
0.482
-0.348
0.068
0.119
0.615
0.507
-0.246
-0.772
-0.045
0.161
0.133
-0.459
-0.142
0.186
0.165
0.312
0.223
0.037
-0.142
-0.256
0.006
0.079
0.881
0.753
-0.341
-0.833
-0.503
0.023
-0.585
0.182
0.971
-0.293
0.406
0.456
0.285
-0.634
-0.667
0.087
-0.205
0.704
0.354
-0.305
-0.848
-0.202
-0.478
0.142
0.761
0.143
0.156
-0.051
0.403
-0.093
-0.435
0.071
0.181
-0.176
0.139
0.429
0.028
0.159
0.185
-0.148
0.152
0.022
-0.059
-0.29
-0.275
-0.053
0.252
-0.154
-0.334
0.079
1.003
0.235
0.157
-1.442
-0.908
-0.693
0.443
0.778
1.039
0.324
0.189
0.119
-0.322
-0.089
-0.379
0.136
0.609
0.5
-0.207
-0.849
-0.648
0.249
0.493
0.361
-0.236
-0.652
0.393
0.228
0.355
0.376
-0.302
-0.289
0.082
0.56
0.038
-0.374
-0.527
-0.042
-0.073
0.055
0.303
0.294
0.184
0.114
-0.425
0.282
0.924
0.102
-0.251
-0.258
-0.929
-0.751
-0.22
0.034
0.624
-0.14
0.496
-0.221
0.078
0.421
0.288
0.046
-0.131
-0.235
-0.11
-0.371
0.321
-0.104
0.226
0.115
0.261
0.006
-0.543
0.428
0.548
-0.626
-0.418
-0.084
0.295
0.162
0.128
0.287
0.186
-0.003
0.099
-0.187
-0.516
0.025
0.361
0.314
-0.005
-0.151
0.1
-0.28
-0.311
0.145
0.215
-0.029
0.59
0.135
0.379
-0.605
-0.018
0.029
-0.19
-0.475
0.256
0.051
-0.071
-0.098
0.458
0.61
0.556
-0.216
-0.218
-0.475
-0.931
0.684
0.554
-0.504
0.127
0.572
-0.833
-0.648
-0.107
0.951
-0.259
0.122
-0.076
-0.122
0.811
0.47
-0.086
0.107
-0.311
-0.343
0.096
-0.12
0.497
0.643
0.174
-1.105
-0.195
-0.35
-0.036
0.144
-0.048
-0.093
0.325
0.427
-0.159
0.24
0.293
-0.122
-0.741
-0.064
0.954
-0.21
-0.239
-0.255
0.136
0.653
1.336
0.121
-0.042
-1.007
-0.893
0.173
-0.44
-0.637
0.022
0.385
-0.019
0.224
0.782
-0.183
0.565
0.746
0.305
-0.504
-1.495
-0.661
-0.374
0.756
0.64
-0.035
0.1
-0.054
0.11
0.511
0.429
0.064
-0.347
-0.557
-0.225
0.48
0.476
-0.246
0.046
-0.243
-0.418
-0.158
-0.196
0.424
0.439
-0.725
-0.723
-0.116
0.459
0.643
0.114
0.037
0.485
-0.357
-0.141
-0.356
0.254
0.039
0.285
0.657
0.609
-0.254
-1.518
-0.648
-0.305
0.752
-0.343
-0.061
0.089
0.474
0.508
0.59
-0.212
-0.071
0.068
0.621
-0.353
-0.64
0.016
1.487
-0.417
-0.974
0.085
0.338
-0.152
-0.164
0.104
-1.253
-0.111
0.525
0.448
0.251
0.007
0.016
0.005
0.244
0.214
0.012
-0.211
-0.194
0.076
-0.764
-0.238
0.97
0.143
0.405
-0.071
-0.821
0.038
0.51
0.497
-0.035
1.166
-0.187
-0.988
-1
-0.247
0.518
0.116
0.256
-0.018
-0.428
0.2
1.055
0.114
-0.483
-0.62
-0.644
-0.368
1.167
0.432
-0.344
-0.098
0.596
-0.005
0.22
-0.346
-0.169
-0.531
-0.269
0.683
0.291
-0.505
-0.474
0.392
0.276
0.413
0.342
0.616
-0.325
-0.833
-0.719
-0.28
0.581
0.821
-0.123
0.081
-0.88
-0.47
0.269
0.069
0.061
0.098
0.07
0.168
0.26
0.325
-0.303
0.274
0.546
-0.561
-0.358
-0.41
-0.258
0.343
0.815
0.174
-0.272
-0.43
-0.143
1.045
-0.66
0.045
-0.953
-0.161
0.523
0.357
0.11
0.564
0.238
0.078
-0.551
-0.732
0.002
-0.227
-0.398
-0.087
-0.036
0.837
0.757
-0.082
-0.111
0.12
0.02
0.456
-0.33
-0.471
0.374
-0.145
-0.228
-0.018
0.602
0.373
-0.448
-0.032
0.236
-0.671
-0.4
-0.514
0.285
0.09
0.124
-0.152
0.45
0.459
0.13
-0.387
-0.545
-0.618
0.205
0.351
0.116
0.247
0.231
0.242
0.136
-0.104
-0.155
-0.119
-0.22
-0.022
-0.038
0.467
-0.037
0.231
0.073
-0.323
-0.517
0.122
-0.155
0.12
0.154
0.197
0.494
0.434
-0.182
0.582
-0.19
-0.144
-0.206
-0.129
-0.406
0.078
0.984
0.281
-0.789
-0.444
0.087
0.099
0.014
0.269
-0.305
-0.504
-0.258
0.149
0.932
-0.348
0.137
0.233
-0.388
0.395
0.199
-0.508
-0.346
-0.056
0.982
-0.004
-0.347
-0.357
0.262
0.343
-0.479
-0.501
-1.009
0.526
1.295
0.593
-0.168
-0.405
-0.384
0.075
0.124
0.306
0.285
-0.08
-0.332
0.076
0.145
0.223
-0.002
-0.325
-0.638
0.139
0.255
0.394
0.642
0.087
-0.176
0.194
-0.296
-0.405
0.135
0.303
-0.007
-0.515
0.376
0.361
-0.301
0.153
-0.347
-0.107
-0.002
-0.172
0.326
0.596
-0.116
-0.421
-0.074
0.575
0.692
-0.155
-0.624
-0.323
-1.249
-0.241
0.888
0.535
-0.036
-0.117
0.36
0.155
0.163
0.046
-0.076
-0.227
-0.697
-0.176
1.236
0.897
0.025
-0.915
-0.934
-0.491
0.544
0.039
0.354
0.049
-0.26
0.362
0.246
-0.399
-0.153
0.111
0.277
0.149
0.012
0.354
-0.022
-0.083
-0.042
0.17
-0.338
-0.436
-0.123
-0.189
0.941
0.859
-0.415
-0.531
-0.676
-0.078
0.581
0.508
-0.395
-0.91
-0.076
0.808
0.431
-0.097
0.258
0.245
-0.002
-0.026
0.049
0.377
-0.31
-0.227
-0.593
-0.297
-0.197
0.135
0.325
1.141
0.277
-0.572
-0.579
-0.476
-0.291
0.245
0.206
0.151
0.235
-0.08
0.035
0.105
-0.002
0.619
0.637
-0.828
-0.288
0.53
0.031
-0.266
-0.013
-0.103
-0.058
-0.051
-0.107
-0.255
-0.453
0.218
0.618
0.341
0.226
0.208
-0.072
-0.006
0.059
-0.183
-0.191
-0.682
0.446
0.386
0.266
-0.049
-0.388
0.114
0.058
-0.182
-0.216
0.469
0.62
0.175
-0.405
-0.321
-0.103
-0.57
-0.34
0.199
0.441
0.52
0.128
-0.65
0.054
-0.227
0.18
-0.226
0.114
0.285
0.32
0.74
-0.022
-0.358
-0.167
-0.052
0.356
0.449
-0.112
-0.322
-0.522
-0.173
0.152
0.036
0.153
0.236
0.845
0.41
-0.79
-1.646
0.683
0.573
0.005
0.003
-0.175
0.07
1.252
-0.197
-0.302
-0.067
-0.409
-0.413
0.096
0.17
0.264
0.061
-0.193
0.172
0.151
0.295
0.147
0.033
-0.175
-0.31
0.116
-0.287
-0.066
0.157
0.301
0.141
0.492
0.918
0.136
-0.601
-0.565
-0.176
-1.031
-0.106
-0.126
-0.106
0.597
0.48
-0.11
0.067
0.033
-0.203
-0.672
-0.158
0.361
0.35
-0.001
0.06
0.24
0.061
0.172
-0.002
-0.565
0.093
0.71
-0.132
-0.311
0.298
0.523
0.333
-0.047
-0.132
-0.284
-0.78
-0.492
-0.245
-0.125
0.278
0.157
0.311
0.522
-0.267
-0.033
0.155
0.103
-0.003
0.191
0.29
0.044
-0.08
-0.606
-0.19
-0.054
0.009
0.117
0.15
0.193
0.094
0.204
0.083
0.05
0.008
0.051
-0.981
0.108
0.781
0.099
0.561
0.317
0.267
-0.296
-1.216
-1.414
-0.679
1.391
1.544
0.611
-0.772
-0.563
0.186
0.24
-0.022
0.006
-0.051
0.116
-0.317
-0.219
-0.161
-0.084
0.438
-0.121
-0.245
0.18
0.845
0.91
0.999
-0.074
-1.126
-1.524
-0.893
-0.429
0.76
0.774
0.239
0.383
0.609
-0.129
-0.246
0.054
-0.358
-0.409
0.168
0.061
-0.727
-0.073
0.578
0.426
-0.325
0.113
0.528
-0.149
0.966
0.398
-0.081
-0.47
-0.918
0.314
0.077
0.178
-0.651
-0.206
-0.047
-0.11
0.172
0.667
-0.305
-0.141
0.312
-0.338
-0.207
0.336
-0.497
0.398
0.802
0.172
0.35
-0.425
-0.124
0.144
-0.625
0.315
0.358
0.318
-0.028
0.052
0.204
-0.493
-0.69
0.258
-0.049
0.141
0.104
-0.002
-0.213
0.122
0.442
0.616
0.651
0.386
-0.125
-1.256
-2.695
-0.756
1.488
-0.048
0.367
0.574
0.024
-0.424
0.847
1.237
-0.031
-0.461
-0.798
0.221
0.224
0.052
-0.531
-0.91
0.649
1.245
0.294
-0.587
-0.989
-0.455
0.171
0.341
0.332
0.356
-0.121
-0.298
0.01
0.189
0.447
0.081
0.009
0.344
-0.18
-0.108
-0.423
-0.635
0.097
0.306
-0.049
0.499
0.253
-0.586
-0.529
0.382
0.964
0.544
-0.663
-1.154
0.845
0.585
0.377
-0.341
-0.889
0.019
1.043
0.111
0.096
0.272
-0.164
-0.989
-0.182
-0.784
0.313
0.686
-0.396
-0.143
0.226
-0.044
-0.555
-0.171
0.733
1.142
0.507
-0.067
-0.592
-0.005
-0.486
-0.287
-0.227
0.048
-0.233
0.353
0.597
-0.059
-0.054
-0.047
-0.078
0
0.026
0.144
0.565
0.461
-0.801
-0.614
-0.266
0.271
0.315
-0.228
-0.549
0.223
1.586
0.63
-0.72
-0.8
0.154
-0.127
-0.033
-0.17
0.798
0.635
0.27
-0.697
-0.672
-0.597
0.384
0.172
-0.011
-0.022
-0.127
-1.025
0.755
1.138
-0.296
-0.621
0.278
0.035
0.554
0.729
0.656
-0.293
-0.841
-0.653
0.704
-0.21
-0.161
-0.663
-0.108
0.378
0.249
0.133
0.317
0.083
-0.137
-0.003
-0.21
0.247
0.302
0.086
-0.305
0.647
-0.19
-0.218
0.543
-0.369
-0.371
-0.184
-0.447
-0.02
0.447
0.257
0.542
0.079
0.062
-0.625
0.009
0.353
0.446
0.199
-0.358
-0.429
0.156
0.194
0.03
0.078
-0.555
0.4
0.766
0.248
-0.375
-0.266
-0.664
0.353
0.25
0.192
-0.444
-0.836
-0.615
0.239
1.189
0.447
-0.171
-0.393
0.48
0.375
-0.008
-0.773
-0.391
0.799
0.831
0.06
-0.3
-0.622
0.134
-0.485
-0.108
0.384
0.112
-0.354
-0.107
0.12
0.249
0.345
-0.373
-0.161
0.569
-0.009
0.579
-0.612
-0.591
0.8
0.066
-0.084
0.527
0.051
-0.398
0.502
0.398
-0.184
-0.838
-0.572
-0.983
0.442
-0.113
0.014
0.693
0.51
-0.221
-0.214
0.04
0.234
0.161
0.2
0.391
0.102
-0.024
-0.07
-0.166
0.089
-0.048
-0.532
0.06
0.008
-0.743
-0.037
0.168
0.226
0.517
0.663
0.205
-0.295
-0.266
-0.426
-0.287
0.898
0.579
0.067
-0.496
-0.647
-0.476
0.15
0.114
0.311
-0.039
0.428
-0.001
0.025
0.193
0.397
0.176
0.026
-0.566
-0.685
-0.627
0.053
0.851
0.395
-0.031
0.013
-0.67
-0.151
0.352
-0.009
0.091
0.229
0.405
0.003
0.145
0.15
-0.518
-0.609
-0.032
0.922
0.571
-0.065
-0.695
-0.331
-0.411
0.278
0.632
-0.01
-0.145
-0.145
-0.273
-0.024
-0.421
0.033
0.182
0.709
0.238
-0.032
0.117
0.218
-0.087
-0.555
-0.383
-0.112
0.176
-0.027
0.224
0.303
0.013
-0.367
-0.448
0.137
0.354
0.117
0.069
-0.014
0.073
0.213
0.334
0.018
-0.504
-0.117
0.48
-0.334
0.392
0.269
-0.691
-0.415
0.899
0.565
0.046
-0.559
-0.666
0.007
0.277
0.889
0.192
-0.959
-0.878
-0.157
0.125
0.607
0.949
0.354
-0.469
-0.542
-0.305
-0.166
0.142
0.433
0.119
0.539
0.237
-0.276
0.057
0.002
-0.703
-0.892
0.449
0.413
0.014
0.278
0.742
0.073
-0.094
-0.716
-0.118
0.161
0.184
0.042
-0.419
-0.168
0.12
0.063
-0.141
0.273
0.335
0.247
0.403
-0.104
-0.321
0.29
0.144
-0.165
-0.417
0.701
-0.115
-0.207
-1.021
0.038
0.762
-0.002
0.126
0.256
0.181
-0.01
-0.724
0.13
0.202
0.322
-0.528
-0.38
0.195
0.729
0.526
0.007
-0.756
-0.601
0.108
0.183
-0.249
0.383
0.048
-0.553
0.204
0.899
-0.085
0.015
0.377
0.125
-0.69
-0.547
-0.533
0.136
1.878
-0.429
-0.963
-0.224
1.228
0.517
-0.292
-0.83
-0.379
0.269
0.675
0.515
0.005
-0.099
-0.655
-0.098
-0.346
-0.255
-0.534
0.513
0.217
-0.606
-0.892
0.196
0.628
0.769
0.729
-0.189
-0.371
-0.582
0.352
0.456
0.371
0.182
0.011
-0.22
-0.16
0.038
-0.113
-0.176
0.954
-0.251
-0.115
0.068
-0.217
0.019
-0.492
-0.065
0.236
0.203
0.056
0.332
0.466
0.396
-0.267
-0.614
0.127
-0.281
-0.362
-0.022
-0.005
0.136
-0.037
0.166
0.955
0.239
-0.404
-0.506
-0.598
-0.021
0.183
-0.098
0.273
0.379
0.322
0.194
0.221
0.369
-0.015
-0.875
0.224
0.012
-0.39
0.129
-0.438
-0.273
0.098
0.246
0.376
-0.393
0.203
0.472
0.881
0.107
-1.155
-0.572
-0.438
0.193
0.464
0.379
-0.052
0.009
0.008
0.37
-0.235
-0.147
0.2
0
0.053
0.333
0.22
-0.121
0.197
-0.449
-0.484
0.157
-0.667
-0.213
1.044
0.753
-0.52
-0.215
-0.39
-0.202
0.44
0.524
-0.029
-0.569
-0.092
0.054
0.362
-0.033
0.098
-0.502
-0.032
0.189
0.089
0.123
-0.458
0.736
1.371
-0.115
-1.219
-0.547
0.149
0.241
0.167
0.259
-0.174
0.025
-0.654
-0.493
0.279
0.114
0.184
0.28
0.218
-0.329
-0.047
-0.178
-0.072
0.126
0.056
0.689
0.989
0.473
-0.251
-0.321
-0.325
-0.797
-0.604
-0.057
0.052
0.182
0.203
0.049
0.234
0.421
-0.084
0.069
-0.369
-0.476
0.21
0.216
0.071
-0.182
0.044
0.126
0.274
0.283
-0.092
0.033
0.036
0.036
0.093
0.014
0.03
0.323
-0.13
-0.225
0.003
0.049
-0.02
0.19
-0.112
-0.069
0.073
0.194
-0.041
0.136
0.074
0.004
-0.413
-0.388
-0.01
0.245
-0.073
0.122
0.302
0.08
0.061
0.028
-0.05
0.014
0.148
-0.018
0.035
0.208
0.078
-0.129
-0.406
0.286
-0.071
0.012
-0.055
-0.119
0.488
0.532
-0.017
-0.454
0.159
-0.273
-0.276
-0.417
-0.002
-0.066
0.716
0.753
-0.641
-0.325
-0.229
-0.12
0.554
-0.04
-0.043
0.188
0.169
-0.148
0.095
-0.098
0.023
0.303
-0.143
-0.484
-0.02
0.261
-0.001
0.387
0.26
-0.106
-0.065
-0.146
-0.299
-0.213
-0.068
-0.294
0.033
0.464
0.231
-0.066
0.057
0.107
-0.013
-0.116
0.115
0.221
0.117
-0.189
-0.227
0.153
0.102
0.089
-0.025
0.041
-0.112
-0.178
1.242
0.728
-0.447
-1.322
-0.351
0.459
-0.209
-0.116
-0.412
0.215
0.248
0.201
0.284
0.068
0.26
0.509
-0.276
-0.356
-0.523
-0.38
0.397
0.405
0.125
0.185
0.031
-0.009
0.099
0.102
0.175
-0.33
-0.024
-0.283
0.187
0.417
0.032
-0.161
-0.246
-0.173
0.069
0.197
-0.014
0.036
0.027
0.036
0.034
0.01
0.023
0.03
0.065
0.008
0.03
-0.101
-0.028
0.209
0.105
0.01
0.043
-0.16
-0.181
0.08
0.016
0.487
0.41
-0.375
-0.435
0.192
-0.122
0.324
0.214
-0.117
-0.473
0.07
-0.6
-0.421
0.775
0.671
-0.105
0.042
0.005
-0.003
-0.63
-0.553
0.521
0.089
-0.033
0.335
0.592
-0.132
0.085
-0.131
-0.213
0.011
0.461
-0.028
0.033
-0.248
0.606
1.329
-0.096
-0.667
-0.92
-1.095
-0.13
-0.24
-0.084
0.957
0.681
0.01
0.211
-0.252
-0.524
-0.262
0.51
0.376
0.038
0.238
0.116
0.463
0.049
-0.659
-0.835
-0.233
0.14
0.166
0.076
0.113
0.219
0.045
0.111
0.377
0.178
0.143
-0.011
-0.402
-0.458
0.386
-0.114
-0.052
-0.015
0.027
-0.411
-0.249
0.419
0.292
0.035
-0.309
-0.105
-0.011
0.116
0.007
0.038
0.104
0.166
0.117
0.128
-0.674
0.096
0.326
-0.032
-0.115
0.172
0.064
0.117
0.454
0.137
0.022
-0.273
0.375
-0.976
-0.085
-0.711
-0.034
0.708
0.392
0.638
0.599
-0.408
-0.323
-1.095
-0.79
0.009
0.872
0.631
0.168
-0.293
-0.144
0.256
0.437
-0.353
-0.244
-0.064
0.418
0.257
-0.06
0.158
-0.59
-0.995
0.04
0.606
0.867
0.502
-0.332
-0.509
-0.267
-0.266
-0.255
-0.474
0.196
0.465
0.085
-0.002
0.184
0.255
-0.01
0.119
-0.08
-0.172
0.013
0.291
0.297
0.135
-0.191
-0.039
0.036
-0.708
-0.637
0.461
1.229
-0.202
-0.699
-0.328
0.572
0.58
-0.069
-0.325
0.006
0.058
0.366
0.397
0.243
0.47
0.079
-1.252
-0.717
-0.249
-0.163
0.352
-0.108
-0.763
0.404
0.746
0.062
0.161
-0.082
0.419
1.017
-1.177
-0.201
-0.223
0.617
0.068
-0.2
-0.063
0.576
-0.392
0.014
0.304
-0.054
0.324
0.647
-0.221
-0.743
-0.092
-0.267
-0.068
0.739
0.257
-0.748
0.195
0.37
0.409
0.32
-0.251
0.514
-0.77
-0.905
-0.593
0.684
0.442
0.248
-0.108
-0.23
-0.186
0.098
0.395
0.003
0.03
-0.107
-0.269
-0.214
-0.019
0.122
0.459
0.209
0.317
0.115
-0.184
-0.297
-0.132
0.175
-0.169
0.322
0.252
-0.13
-0.131
-0.321
-0.701
-0.328
0.268
0.283
0.665
0.699
-0.008
-0.425
-0.22
0.099
-0.017
-0.604
-0.421
0.799
0.422
-0.589
-0.272
0.254
0.348
-0.341
0.275
0.405
0.6
-0.541
-0.179
-0.472
-0.062
0.288
0.477
0.192
0.141
-0.128
-0.303
-0.549
0.29
0.262
-0.129
0.209
0.039
-0.38
0.339
0.48
-0.235
-0.695
-0.069
0.416
0.183
-0.433
-0.259
0.031
0.043
0.135
0.709
0.029
-0.054
-0.203
-0.212
0.424
-0.233
-0.542
0.023
-0.018
0.17
0.218
0.141
-0.148
0.338
0.536
0.263
-0.227
-0.85
0.103
0.77
0.287
-0.254
-0.298
-0.647
-0.972
0.246
0.598
-0.162
-0.218
0.584
-0.118
-0.379
0.259
-0.114
0.577
0.366
-0.03
-0.228
-0.088
-0.199
-0.661
0.322
0.737
0.163
0.009
-0.229
0.308
-0.191
-0.501
-0.082
0.524
0.38
-0.242
-0.414
-0.168
-0.129
0.439
0.126
-0.594
-0.776
1.03
0.621
0.574
-0.073
-0.773
-0.36
0.172
0.302
-0.114
-0.064
0.413
0.066
-0.178
0.224
-0.113
0.403
0.359
-0.027
-0.023
-0.48
-1.031
0.322
0.202
0.22
0.314
0.084
-0.081
0.394
0.589
0.274
-0.193
-0.868
-0.397
0.727
-0.07
-0.62
0.756
0.214
-0.176
-1.29
-0.4
0.902
0.326
0.05
0.485
-0.275
0.438
0.447
-0.15
-0.363
-0.816
0.322
0.495
-0.167
-0.525
-0.356
0.176
-0.438
0.331
0.679
0.508
0.058
-0.462
-0.171
0.157
0.191
-0.018
-0.076
-0.215
-0.065
-0.022
0.19
0.19
0.198
-0.04
-0.732
-0.515
0.226
0.426
0.574
-0.109
0.442
0.932
-0.497
-0.562
-0.911
-0.849
-0.366
0.665
1.142
0.009
-0.025
-0.088
-0.141
0.626
0.142
0.05
-0.066
-0.427
-0.475
-0.268
0.185
0.584
0.461
-0.5
-0.117
0.515
0.369
0.565
0.382
-0.944
-0.67
-0.173
-0.997
0.379
0.981
-0.05
-0.644
-0.022
0.023
0.156
0.24
0.067
0.24
0.111
0.121
0.436
0.119
0.621
-0.278
-0.642
-0.41
0.282
-0.353
-0.169
-0.332
0.243
0.155
0.263
0.092
0.037
0.02
0.103
0.049
0.081
0.038
-0.003
0.051
-0.072
0.066
0.016
0.18
-0.057
-0.057
-0.088
0.186
0.024
-0.5
-0.212
0.336
0.254
0.19
0.292
0.351
0.425
-0.332
0.001
-0.297
-0.957
0.002
0.9
-0.224
-0.675
-0.51
0.151
1.586
0.548
0.185
-1.615
-2.152
0.086
1.109
0.773
0.963
0.054
0.205
0.475
-0.526
-1.005
0.136
0.054
0.839
0.387
-0.922
0.068
-0.097
-0.198
0.117
0.704
0.634
-0.538
-0.659
-0.797
-0.425
0.3
0.085
0.25
0.216
0.63
0.792
0.194
-0.526
-1.11
-0.444
0.392
0.492
-0.894
-0.027
0.727
0.319
0.055
-0.245
0.055
0.218
0.065
-0.008
0.047
0.067
0.081
-0.004
-0.031
-0.058
-0.116
0.042
0.161
0.662
0.389
-0.317
-0.325
-0.594
-0.213
0.1
0.411
0.74
-0.607
-0.491
-0.316
0.384
0.456
0.287
-0.063
-0.481
-0.336
0.143
0.323
-0.271
0.458
0.503
-0.492
-0.284
0.21
-0.216
0.398
-0.006
-0.04
0.322
0.034
-0.067
-0.845
-0.159
0.522
0.521
-0.274
0.281
0.371
-0.194
-0.505
-0.554
0.518
0.173
-0.618
-0.055
0.483
0.231
0.316
-0.502
0.197
-0.174
0.252
-0.038
-0.157
0.045
0.102
-0.064
0.127
0.446
0.085
-0.436
-0.015
-0.039
0.066
0.253
0.02
-0.143
-0.123
0.017
0.294
0.235
-0.101
-0.18
-0.122
-0.18
0.058
0.086
0.075
0.005
0.078
-0.041
-0.005
0.107
0.01
0.114
0.401
0.114
-0.321
-0.812
-0.078
0.057
0.488
-0.155
-0.248
0.142
0.144
0.264
0.443
0.08
-0.388
-1.086
-0.135
0.668
0.461
-0.223
-0.399
0.48
0.085
0.982
0.277
-0.704
-0.74
-0.574
-0.455
0.282
1.051
0.106
-0.891
0.092
0.425
0.277
-0.562
-0.329
-0.019
1.014
1.006
-0.158
-1.331
-0.308
0.663
0.465
0.467
0.035
0.208
-0.531
-0.181
0.405
0.161
-0.444
-0.932
-0.364
-0.205
-0.02
-0.066
0.388
0.671
-0.129
-0.072
0.09
0.168
0.108
0.079
0.137
0.005
-0.14
0.103
-0.08
-0.08
0.073
0.33
0.175
-0.284
-0.74
-0.183
0.143
0.222
0.201
0.484
-0.383
-0.205
0.203
-0.122
-0.058
0.04
-0.133
0.188
0.237
-0.182
0.182
0.023
-0.03
0.106
0.364
0.04
0.247
0.073
-0.289
-0.407
-0.506
-0.103
0.06
0.286
0.102
0.867
0.497
-1.153
-1.194
1.1
-0.016
-0.279
0.098
0.285
0.409
0.064
0.283
0.609
-0.055
-0.65
-0.589
-0.087
0.289
0.471
-0.796
0.186
-0.75
-0.649
0.536
0.6
0.027
-0.008
0.47
0.187
-0.425
-0.177
-0.227
-0.378
0.218
0.545
0.383
0.992
0.056
-1.194
-0.33
-0.17
0.013
0.099
-0.275
-0.202
0.245
0.09
-0.003
-0.368
0.163
0.746
0.47
-0.106
-0.436
-0.141
-0.202
0.461
0.164
-0.224
-0.337
0.104
-0.027
0.29
-0.022
-0.499
0.122
-0.032
-0.265
-0.025
0.162
0.485
0.154
0.08
-0.029
0.002
0.119
-0.114
-0.308
0.058
0.085
-0.012
0.021
0.015
0.005
0.09
-0.016
0.051
0.048
0.003
0.006
-0.004
-0.071
0.009
0.141
0.173
0.005
-0.025
0.023
-0.023
-0.141
-0.329
0.088
0.343
0.694
0.476
0.32
-0.319
-0.981
-0.688
-1.048
-0.285
0.97
1.04
0.334
-0.809
-0.383
1.091
-0.043
-0.178
0.334
0.391
0.018
-0.249
-0.204
0.247
0.021
0.398
-0.174
-0.421
-0.087
1.006
1.378
-0.777
-1.283
0.077
-1.485
0.254
0.486
0.129
-0.385
0.159
0.203
0.294
-0.059
-0.211
0.051
0.487
0.254
-0.09
-0.145
-0.12
-0.026
0.137
0.033
0.031
0.039
-0.031
0.01
0
0.222
0.15
0.01
-0.012
-0.534
-0.152
0.013
0.134
0.14
-0.163
0.052
0.251
-0.008
0.11
0.015
-0.038
-0.003
0.038
0.198
0.474
0.108
-0.3
0.07
0.078
0.053
0.006
-0.256
-0.914
0.223
0.147
-0.073
0.036
-0.124
0.099
0.2
0.094
0.397
-0.011
-0.364
0.594
0.646
0.171
-1.118
-0.274
0.148
-0.432
-0.404
0.219
0.488
0.284
0.072
-0.096
0.067
0.061
-0.275
0.391
0.719
-0.213
-0.03
-0.337
-0.108
-0.326
-0.028
0.014
-0.107
-0.128
-0.213
0.488
0.089
0.049
-0.438
0.381
0.512
-0.017
0.023
-0.098
-0.054
0.11
0.29
0.202
-0.078
-0.435
-0.48
-0.19
0.279
0.126
0.064
-0.114
-0.009
0.1
0.052
0.08
-0.007
0.027
0.047
0.006
0.004
0.112
0.096
-0.02
0.027
-0.105
-0.185
0.21
0.079
-0.115
-0.038
-0.03
-0.027
0.06
0.07
0.02
-0.044
-0.04
0.061
0.517
0.174
-0.157
-0.212
-0.355
-0.486
0.099
0.403
0.728
0.356
-0.241
-0.337
-0.385
-0.238
-0.038
0.259
0.062
-0.232
-0.04
0.143
0.25
0.117
0.058
-0.085
-0.218
0.041
0.125
0.197
-0.023
-0.007
0.215
-0.021
0.207
-0.422
0.021
-0.061
0.246
0.236
-0.149
-0.059
-0.149
0.067
-0.002
0
-0.112
-0.031
0.18
0.054
-0.001
0.019
0.004
0.016
0.011
0.024
0.093
0.009
-0.006
-0.064
0.04
0.058
0.063
0.067
0.012
-0.003
-0.132
0.058
0.06
-0.041
0.03
0.089
0.067
0.071
-0.034
-0.194
0.135
-0.096
-0.036
0.05
0.108
-0.017
0.014
-0.021
0.069
0.043
0.107
-0.054
-0.027
0.072
-0.028
0.053
0.058
0.055
0.23
-0.007
-0.119
-0.185
-0.189
0.067
0.285
0.104
-0.037
-0.05
-0.143
0.053
-0.029
0.012
0.025
0.123
0.023
0.023
0.044
0.061
0.046
0.064
0.027
0.04
0.131
0.309
-0.042
-0.11
-0.326
-0.167
-0.144
0.123
0.34
0.276
-0.186
-0.198
-0.09
-0.115
-0.08
0.174
0.079
0.041
0.255
0.035
-0.021
-0.012
-0.026
0.02
0.142
0.12
-0.077
-0.022
0.059
0.023
0.119
0.07
-0.065
-0.12
-0.181
0.024
0.163
0.135
0.019
-0.018
0.055
0.038
-0.027
0.016
0.032
0.186
0.147
-0.061
-0.035
-0.071
-0.083
0.146
0.082
-0.211
0.053
0.069
0.07
-0.083
0.002
0.008
0.034
0.03
0.019
-0.024
-0.011
0.05
0.031
0.042
0.009
0.008
0.005
-0.014
-0.003
0.024
-0.023
-0.047
0.054
0.01
-0.015
0.027
0.011
0.103
0.077
-0.058
-0.106
-0.089
-0.005
-0.046
-0.053
0.066
0.038
0.011
0.007
0.004
-0.058
-0.013
-0.013
-0.002
0.02
0.03
0.005
0.016
0.037
0.018
0.024
0.034
0.025
0.006
0.025
0.017
0.018
0.027
0.028
0.03
0.01
0.005
0.013
0.045
0.004
-0.011
0.008
0.256
0.043
-0.218
-0.18
0.013
0.12
0.146
0.036
-0.019
0.071
0.002
0.09
0.067
0.031
0.068
0.055
0.032
0.038
-0.004
0.027
0.01
0.02
-0.031
-0.005
0.018
-0.018
-0.034
-0.029
-0.025
0.009
-0.056
-0.017
0.016
-0.058
-0.018
-0.002
-0.006
-0.024
-0.019
-0.027
-0.001
0.023
-0.013
-0.006
0.007
0.023
0.01
-0.018
0.025
-0.004
0.025
0.002
0.012
0.001
0.022
0.009
-0.003
-0.007
-0.024
0.026
0.004
0.035
0.036
-0.003
0.011
0.012
0.012
-0.012
-0.001
0.003
-0.005
-0.013
0.029
0.061
-0.005
0.014
0.027
-0.011
0
0.031
-0.005
0.02
-0.002
0.019
0.013
-0.013
-0.002
0.026
0.024
0.008
0.015
0.02
-0.014
-0.003
-0.013
0.035
0.023
0.012
0.005
-0.011
0
0.005
0.003
-0.001
0.011
0.02
0.029
0.036
0.039
0.037
0.015
0.017
-0.03
0.01
-0.011
0.026
-0.018
-0.029
0.005
-0.007
-0.009
-0.003
0.012
0.022
-0.021
-0.011
0.009
0.019
0.002
-0.031
0.039
0.042
0.008
-0.004
0.027
0.006
0.046
-0.008
0.009
0.024
0.041
0.034
0.025
0.009
0.038
0.027
0.026
0.01
0.023
0.015
0.029
0.022
0.003
0.034
0.002
-0.012
-0.024
0.023
0.013
0.027
0.001
0.052
0.031
0.03
0.016
0.008
0.026
0.02
0.017
0.024
0.005
-0.001
0.02
0.007
0.029
0.003
0.004
0.038
0.01
0.03
0.05
-0.011
0.004
0.017
0.026
0.033
0.004
-0.032
-0.001
0.029
0.022
0.002
0.023
0.034
-0.014
0.032
0.036
0.001
0.025
0.011
0.047
0.028
0.025
0.001
-0.005
0.012
0.002
-0.007
-0.027
-0.005
0.039
0.01
0.016
0.017
0.027
-0.002
0.013
0.029
0
0.011
0
0.014
0.022
-0.002
0.015
-0.005
-0.006
0.007
0.016
0.044
-0.002
0.005
0.021
0.014
0.016
0.03
0.046
0.029
0.018
0.023
0.01
0.025
-0.002
0.029
0.032
-0.01
0.015
0.015
0.005
0.025
0.033
0.019
0.021
0.017
0.054
0.013
-0.052
0.005
0.039
0.059
-0.048
0.046
0.025
0.035
-0.001
0.034
0.013
0.017
-0.011
0.021
0.002
0.01
-0.004
0.008
0.024
-0.001
-0.005
0.019
-0.009
0.047
0.076
-0.002
0.063
-0.009
-0.088
0.085
0.06
0.134
-0.097
-0.108
-0.033
-0.047
-0.024
0.03
0.086
0.058
0.057
0.063
0.062
0.022
0.064
-0.015
-0.094
-0.036
-0.14
0.031
0.043
0.13
0.136
0.037
-0.118
0.064
0.068
-0.003
0
-0.005
0.013
-0.009
0.034
-0.028
0.017
-0.024
-0.024
-0.019
-0.008
0.027
0.029
0.019
0.039
0.034
0.005
-0.002
0.001
0.008
0.026
-0.004
0.026
-0.003
0.016
0.003
0.003
0.012
0.032
0.054
-0.009
-0.001
0.024
0.012
-0.018
-0.002
0.026
-0.021
0.045
0.066
0.014
-0.006
0.02
-0.002
-0.009
0.009
0.03
0.006
0.004
0.007
0.017
0.003
0.021
0.027
-0.002
0.026
0.019
-0.003
-0.004
0.009
0.027
0.024
0.01
0.016
-0.025
0.004
0
0.039
-0.01
0.025
0.016
0.017
0.012
0.023
0.033
0.014
0.015
0.011
-0.007
0.012
0.027
0.027
-0.015
-0.009
0.008
0.039
0.022
0.024
0.031
-0.052
-0.108
0.026
0.101
0.081
0.07
0.009
-0.042
-0.032
-0.043
0.007
0.025
0.056
0.019
0.05
0.031
0.019
0.041
0.038
-0.026
-0.078
0.04
0.04
0.048
0.046
0.012
0.032
-0.006
0.021
0.009
0.032
0.013
0.013
-0.004
-0.002
0.045
0.053
-0.005
-0.009
0.012
0.004
0.016
0.014
0.039
0.002
0.004
0.002
0.007
0.027
-0.003
0.006
-0.016
0.013
0.057
0.006
0.024
0.009
0.035
0.006
-0.012
0.029
-0.057
0.028
0.023
-0.047
0.007
0.079
0.116
-0.038
0.063
0.016
0.024
0.004
-0.058
-0.048
0.022
0.045
0.033
0.036
0.054
0.012
0.042
0.066
0.02
0.024
0.034
0.018
-0.04
-0.14
-0.104
0.06
-0.004
0.068
0.143
0.012
-0.106
0.057
0.082
0.065
0.025
0.014
0.04
-0.017
0.003
0.041
0.032
0.064
0.051
0.045
0.062
0.044
0.02
-0.064
-0.042
0.08
0.148
-0.002
-0.096
0.008
-0.118
0.047
0.104
0.149
0.092
-0.02
-0.05
-0.028
-0.02
0.043
0.095
0.047
0.048
0.003
0.113
0.037
0.019
-0.013
0.007
-0.035
0.006
-0.001
0.032
0.058
0.113
0.014
-0.048
-0.065
0.029
0.028
0.062
0.009
0.035
-0.025
0.013
0.043
0.026
0.016
0.032
0.027
0.053
-0.022
0.003
-0.013
0.012
0.016
0.004
-0.003
0.066
-0.002
-0.029
-0.077
0.017
-0.065
0.064
0.03
0.063
0.175
0.08
0.017
0.004
-0.014
0.004
0.139
-0.087
0.083
-0.054
0.04
0.208
-0.02
-0.133
-0.321
-0.114
0.087
0.005
-0.037
0.047
0.269
0.185
0.004
-0.014
-0.079
-0.092
0.014
0.116
0.045
0.115
0.055
-0.027
-0.045
0.003
0.033
-0.011
-0.239
-0.004
0.105
0.19
0.177
-0.024
0.034
0.017
0.152
0
-0.048
0.015
-0.098
-0.069
-0.052
-0.036
0.017
0.05
0.078
0.145
-0.008
-0.05
0.003
0.024
0.009
0.014
0.136
0.105
-0.02
-0.137
-0.142
-0.058
0.048
0.033
0.094
0.004
0.065
0.042
0.02
-0.004
-0.014
0.007
0.02
0.004
-0.003
0.012
-0.005
0.001
0.015
0.06
0.027
-0.046
-0.001
-0.012
0.059
0.052
0.007
-0.017
-0.026
0.024
0.022
0.017
-0.007
-0.033
0.032
-0.032
0.055
0.028
-0.018
0.105
0.102
0.005
-0.018
0.018
-0.021
-0.05
0.019
0.003
0.058
0.034
0.038
0.051
0.032
-0.088
0.018
0.178
-0.041
-0.107
-0.136
-0.027
0.099
0.166
0.115
-0.033
0.016
0.071
0.034
0.01
0.04
-0.023
-0.054
0.054
0.088
0.047
0.027
-0.029
-0.066
-0.167
0.043
0.102
0.069
0.05
0.085
0.005
0.041
0.082
-0.068
-0.024
-0.092
-0.07
-0.175
0.047
0.105
0.006
0.038
0.052
0.066
0.072
0.03
-0.102
-0.054
0.135
0.19
0.169
-0.126
-0.036
-0.182
-0.047
0.103
0.206
0.021
0.022
-0.036
0.104
0.114
0.191
0.028
-0.085
-0.319
-0.287
-0.06
-0.185
-0.045
0.252
0.26
0.28
0.096
-0.131
-0.236
-0.187
0.086
0.146
0.218
0.079
-0.116
-0.107
0.067
0.081
0.146
0.014
0.123
-0.079
0.036
-0.126
0.056
-0.065
-0.034
0.069
0.054
-0.016
0.036
0.028
0.093
-0.046
-0.039
-0.004
0.036
0.048
0.106
0.061
-0.005
-0.023
0.034
0.029
0.002
0.023
0.063
-0.01
0.012
0.038
0.05
-0.005
0.004
0.121
0.029
-0.016
-0.073
-0.077
-0.077
0.037
0.058
0.041
0.054
0.019
0.026
-0.002
0.015
0.021
0.016
0.033
0.181
0.171
0.015
-0.017
-0.227
-0.263
0.066
0.093
-0.002
0.065
0.046
-0.029
-0.016
0.082
-0.033
0.011
-0.045
0.146
0.209
0.148
-0.093
0.021
-0.026
-0.053
-0.048
-0.031
0.095
0.132
0.18
-0.06
-0.099
-0.062
-0.049
-0.013
-0.21
-0.022
0.143
0.218
0.167
-0.022
-0.012
-0.026
-0.001
0.061
-0.024
-0.003
-0.021
0.031
0.034
0.093
0.026
0.032
-0.036
-0.072
-0.028
-0.053
0.014
0.043
0.06
0.045
0.035
-0.02
-0.006
0.029
0.024
-0.007
-0.009
0.095
-0.011
0.04
-0.023
0.007
-0.038
-0.005
0.022
0.05
0.054
0.054
0.018
0
0.005
0.062
0.027
0.028
0.05
0.011
-0.096
0.04
-0.089
-0.064
0.106
0.104
0.102
0.018
-0.033
-0.002
0.006
-0.009
-0.026
0.009
0.054
0.009
0.009
0.018
0.03
0.022
-0.001
0.04
0.053
0.049
0.026
-0.016
0.007
-0.025
-0.029
-0.005
-0.056
0
0.036
0.085
0.05
0.017
0.039
0.024
0.063
-0.008
-0.005
0.041
0.018
0.01
-0.037
-0.039
0.057
0.066
0.101
-0.1
0.061
0.002
-0.065
0.02
-0.034
0.045
0.06
-0.013
0.019
0.025
0.012
0.003
0.029
-0.029
-0.013
0.039
0.052
0.013
0.033
0.035
0.002
0.049
0.011
-0.003
0.029
0.005
0.025
-0.002
-0.015
0.016
-0.029
-0.011
-0.005
0.032
0.016
0
0.028
0.028
0.038
0.01
0.003
0.028
0.019
0.023
0.031
0.012
0.012
0.005
0.011
-0.016
0.019
0.028
0
0.019
0.011
-0.003
0
0.001
0.018
0.03
0.022
-0.003
0.038
0.01
-0.009
0.023
0.01
0.021
0.006
-0.021
0.036
0.035
0.016
0.05
0.024
-0.003
-0.003
-0.074
0
0.064
0.02
0.025
-0.015
0.045
0.012
0
0.024
0.015
0.039
0.028
-0.015
-0.003
0.049
0.101
-0.067
-0.042
-0.028
-0.035
-0.055
0.086
0.13
0.142
-0.011
0.022
-0.059
-0.064
-0.009
0.034
0.085
0.014
0.097
-0.034
0
0.017
0.017
0.03
0.022
0.034
0.012
-0.059
0.021
0.016
0.029
0.009
0.005
0.024
0.024
0.016
0.022
0.024
0.029
-0.005
0.003
0.012
0.025
0.017
0.017
0.023
0.026
0.026
0.016
0.001
-0.007
-0.001
0.011
0.021
0.018
0.025
0.033
0.001
0.011
0.021
-0.003
-0.009
0.023
0.019
0.006
-0.014
0.015
-0.022
0.002
0.02
0.011
-0.001
0.001
-0.008
0.028
0.022
0.024
0.023
0.035
0.033
0.01
-0.002
-0.009
0.016
-0.006
0.043
0.025
0.022
0.039
0.001
-0.004
0.002
0.007
0.024
0.009
0.021
0
0.005
0.028
0.004
0.047
-0.028
0.048
0.001
-0.009
0.036
0.03
-0.013
0.003
0.027
0.012
0.007
0.02
0.006
0.021
0.023
-0.015
0.008
-0.008
-0.001
0.034
0.03
0.015
0.012
0.017
0.031
0.023
0.041
0.027
0.02
0.011
0.002
0.008
0.003
0.021
-0.008
-0.002
-0.014
0.003
0.019
0.009
0.031
0
0.015
-0.002
0.039
0.024
0.025
0.038
0.057
0.003
-0.014
0.018
0.002
-0.012
0.04
0.017
0.013
0.023
0.013
-0.003
0.001
0.001
0.009
0.033
0.025
0.011
0.036
0.016
0.029
0.007
0.028
0.019
0.046
-0.001
-0.002
0.025
0.009
0.003
-0.016
0.005
0.02
0.008
0.025
0.037
0.022
0.008
-0.01
0.008
0.014
0.012
0.008
0.024
0.049
-0.005
0.005
0.027
-0.048
0.031
0.042
0.01
-0.005
-0.031
0.01
0.017
-0.039
-0.011
0.032
0.038
0.026
0.007
0.023
0.007
0.019
-0.003
0.02
0.029
-0.02
0.011
0.013
0.011
0.031
0.015
0.033
-0.037
-0.023
-0.012
-0.001
0.031
-0.009
0.001
0.029
0.041
-0.001
0.007
0.012
0.026
0.007
0.041
-0.002
0.01
0.009
-0.005
0.03
0.022
0.022
0.023
0.03
0.038
0.005
-0.004
0.038
0.002
0
0.003
0.004
0.033
0.004
0.004
-0.014
-0.012
0.015
0.013
0.005
0.026
-0.004
0.043
0.015
-0.004
0.014
-0.01
0.018
0.024
0.034
0.004
0.003
-0.018
0.014
0.011
0.016
0.004
0.033
0.012
0.026
0.027
0.014
-0.007
0.02
0.025
0.02
0.021
0.004
0.011
0.005
-0.002
0.007
0.025
0.039
0.014
0.022
0.022
-0.001
0.008
0.017
-0.004
-0.002
-0.009
-0.003
0.037
0.026
-0.005
-0.021
-0.002
0.009
0.007
0.017
0.034
0.013
0.007
-0.013
0.014
0.018
0.024
0.009
-0.025
0.028
0.025
0.029
0.024
0.012
-0.003
0.019
-0.003
-0.009
0.002
0.003
0.048
0.021
0.001
0.014
0.023
0.013
0.026
0.024
-0.004
0.045
-0.021
-0.004
-0.019
-0.027
0.022
0.031
0.026
0.035
0.002
0.034
-0.003
0.001
0.003
0.012
0
-0.047
0.022
-0.008
-0.005
-0.047
0.078
0.017
-0.009
0.074
-0.021
-0.047
-0.006
0.021
0.035
0.019
-0.003
0.014
-0.035
0.009
0.018
-0.01
-0.033
-0.022
-0.005
0.004
0.001
0.019
0.048
0.032
0.027
0.016
0.039
0.007
0.013
-0.009
0.003
-0.004
0.02
-0.011
0.01
-0.005
0.011
0
0.018
0.015
0.031
0.009
0.017
0.027
-0.013
0.027
-0.01
0
0.017
0.03
0.011
-0.007
0.028
-0.017
-0.077
0.017
-0.051
0.001
0.007
0.036
0.023
0.034
0.04
-0.01
0.026
0.009
-0.021
-0.002
0.038
0.008
0.001
-0.008
-0.054
-0.031
0.02
0.02
0.029
0.022
0
0.013
0.008
0.017
0.005
0.022
0.01
-0.015
0.014
0.001
0.018
-0.001
-0.003
-0.002
0.007
0.018
0.023
0.061
-0.008
0
0.026
0.019
-0.009
-0.016
0.003
-0.007
0.017
0.004
0.019
0.009
0.034
0.013
-0.022
-0.036
0.022
0.031
0.031
0.025
0.001
-0.045
-0.034
0.02
0.034
0.028
0.031
0.011
0.005
-0.045
-0.013
0.06
0.022
0.011
0.002
-0.005
0.035
-0.028
-0.009
-0.009
-0.017
-0.112
-0.048
0.142
0.003
0.01
0.035
0.06
0.033
0.001
0.003
-0.003
0.011
0.023
0.008
0.006
-0.017
0.04
-0.081
-0.045
0.063
0.079
0.016
-0.002
0.016
-0.01
-0.007
-0.017
0.05
-0.002
-0.002
0.016
-0.023
-0.03
0.022
0.04
0.016
-0.008
0.016
0.015
-0.005
-0.014
0.023
0.011
0.007
0.029
0.023
0.009
0.013
0.014
0.009
0.011
0.039
0.007
0.004
0.002
-0.001
-0.024
-0.013
0.031
-0.008
-0.005
0.025
0.023
-0.014
0.015
-0.006
-0.055
0.023
0.017
0.017
0.01
0.02
0.009
0.008
-0.005
-0.009
0.034
0.008
0.042
0.007
-0.013
0.014
-0.012
0.022
-0.004
0.002
0.01
0.019
0.02
-0.013
-0.01
-0.002
0.013
0
-0.071
-0.029
0.009
0.057
0.006
0.029
0.026
0.013
0.017
0
-0.03
0.016
0.012
0.1
0.035
0.013
0.004
-0.03
-0.065
0.018
0.017
0.029
0.032
0.015
0.024
-0.004
0.043
0.03
0.001
0.007
0
-0.007
-0.01
-0.003
0.009
