ECG (500 Hz)
8181
8181
8181
8182
8182
8182
8182
8183
8183
8183
8183
8183
8183
8183
8184
8184
8184
8183
8183
8183
8183
8183
8183
8183
8183
8183
8183
8183
8183
8183
8183
8183
8183
8183
8183
8183
8183
8183
8183
8184
8184
8184
8184
8184
8184
8184
8184
8184
8184
8184
8184
8184
8184
8184
8184
8185
8185
8185
8185
8185
8185
8185
8185
8186
8186
8186
8186
8186
8186
8186
8186
8186
8186
8186
8186
8187
8187
8188
8188
8189
8190
8191
8192
8193
8193
8194
8195
8196
8196
8197
8198
8198
8199
8200
8201
8202
8203
8204
8204
8205
8205
8205
8205
8204
8204
8203
8203
8202
8202
8201
8201
8201
8200
8199
8198
8197
8196
8194
8192
8190
8188
8186
8184
8183
8182
8181
8180
8179
8179
8179
8178
8178
8178
8178
8178
8179
8179
8179
8179
8179
8179
8179
8180
8180
8180
8180
8179
8179
8178
8177
8176
8175
8175
8176
8180
8186
8196
8212
8233
8261
8293
8331
8371
8413
8453
8490
8520
8541
8551
8549
8534
8508
8472
8430
8384
8338
8295
8256
8222
8196
8176
8162
8153
8147
8143
8142
8143
8144
8146
8147
8148
8150
8150
8151
8152
8152
8153
8153
8153
8153
8154
8154
8154
8154
8155
8155
8156
8156
8156
8157
8157
8157
8158
8158
8159
8159
8159
8159
8160
8160
8160
8160
8160
8160
8160
8161
8161
8161
8161
8162
8162
8163
8163
8163
8163
8163
8164
8164
8164
8164
8164
8164
8165
8165
8165
8165
8165
8166
8166
8166
8166
8167
8167
8167
8167
8168
8168
8168
8169
8169
8170
8170
8171
8171
8172
8172
8173
8173
8174
8175
8175
8175
8176
8176
8177
8177
8178
8178
8179
8180
8181
8182
8183
8184
8185
8186
8187
8188
8189
8190
8191
8192
8193
8194
8195
8196
8197
8198
8199
8200
8201
8202
8203
8203
8204
8205
8206
8206
8207
8207
8208
8208
8208
8209
8209
8209
8210
8210
8210
8210
8209
8209
8209
8208
8208
8207
8207
8207
8207
8206
8206
8205
8205
8204
8203
8202
8201
8200
8199
8198
8196
8195
8194
8192
8191
8189
8188
8187
8186
8185
8184
8183
8182
8181
8181
8180
8179
8178
8178
8177
8177
8176
8176
8175
8175
8175
8174
8174
8173
8173
8173
8172
8172
8172
8172
8171
8171
8171
8171
8172
8172
8172
8172
8173
8173
8173
8174
8174
8174
8174
8174
8174
8174
8174
8175
8175
8175
8175
8175
8175
8175
8175
8176
8176
8176
8176
8176
8177
8177
8177
8178
8178
8178
8179
8179
8179
8180
8180
8180
8181
8181
8181
8182
8182
8182
8182
8183
8183
8183
8183
8184
8184
8184
8185
8185
8185
8185
8185
8185
8185
8185
8185
8186
8186
8186
8186
8186
8186
8186
8187
8187
8186
8186
8186
8186
8185
8185
8185
8184
8184
8184
8184
8183
8183
8183
8182
8182
8182
8182
8182
8182
8182
8182
8182
8182
8182
8182
8182
8182
8182
8182
8182
8182
8181
8181
8181
8181
8181
8181
8181
8181
8181
8181
8181
8180
8180
8180
8180
8180
8180
8180
8180
8180
8180
8180
8180
8181
8181
8180
8180
8180
8180
8180
8180
8180
8180
8180
8180
8180
8180
8180
8180
8180
8180
8180
8180
8180
8180
8180
8180
8181
8181
8181
8181
8181
8181
8181
8181
8182
8182
8182
8182
8182
8182
8182
8182
8182
8182
8182
8182
8182
8182
8182
8182
8182
8181
8181
8181
8182
8181
8181
8182
8182
8182
8181
8182
8182
8181
8181
8181
8181
8181
8181
8181
8182
8182
8182
8182
8182
8182
8182
8182
8182
8182
8182
8183
8183
8183
8183
8183
8183
8183
8184
8184
8184
8184
8184
8185
8185
8185
8186
8186
8187
8188
8189
8189
8190
8191
8192
8193
8193
8194
8195
8195
8196
8196
8197
8198
8199
8200
8200
8201
8202
8202
8202
8202
8202
8201
8201
8200
8200
8199
8199
8198
8198
8197
8196
8195
8193
8192
8190
8188
8186
8185
8183
8182
8181
8180
8179
8179
8178
8178
8177
8177
8177
8176
8176
8176
8176
8176
8177
8177
8177
8177
8178
8178
8178
8178
8178
8178
8177
8176
8176
8175
8175
8175
8175
8178
8183
8191
8204
8221
8244
8271
8303
8339
8377
8415
8452
8483
8508
8524
8527
8519
8499
8469
8431
8388
8343
8299
8260
8226
8198
8177
8163
8153
8147
8143
8142
8143
8144
8146
8148
8149
8151
8152
8153
8154
8154
8154
8155
8155
8155
8156
8156
8156
8156
8157
8157
8157
8157
8158
8158
8159
8159
8160
8160
8160
8161
8161
8161
8161
8162
8162
8162
8163
8163
8163
8164
8164
8164
8164
8164
8164
8164
8164
8164
8164
8165
8165
8165
8165
8165
8166
8166
8166
8166
8167
8167
8167
8167
8168
8168
8168
8168
8169
8169
8169
8170
8170
8170
8171
8171
8172
8172
8172
8173
8173
8174
8174
8175
8175
8176
8176
8177
8178
8179
8180
8180
8181
8182
8182
8183
8183
8184
8184
8185
8186
8187
8188
8189
8190
8191
8192
8193
8195
8196
8197
8199
8200
8201
8203
8204
8205
8206
8207
8208
8209
8210
8210
8211
8212
8213
8213
8214
8214
8215
8215
8216
8216
8216
8217
8217
8217
8217
8217
8216
8216
8216
8215
8215
8214
8214
8213
8212
8211
8210
8208
8207
8205
8204
8202
8201
8199
8198
8196
8195
8193
8191
8190
8188
8186
8185
8183
8182
8181
8180
8179
8178
8177
8177
8176
8175
8175
8174
8174
8173
8173
8172
8172
8172
8171
8171
8171
8171
8171
8171
8170
8170
8170
8170
8170
8170
8170
8170
8170
8170
8170
8170
8170
8170
8170
8170
8170
8171
8171
8171
8171
8171
8172
8172
8172
8172
8172
8173
8173
8173
8174
8174
8174
8175
8175
8175
8175
8175
8176
8176
8176
8176
8177
8177
8178
8178
8178
8179
8179
8179
8180
8180
8181
8181
8181
8182
8182
8182
8183
8183
8183
8184
8184
8184
8184
8184
8185
8185
8185
8185
8185
8185
8185
8185
8185
8185
8185
8185
8184
8184
8184
8184
8184
8184
8184
8184
8183
8183
8183
8183
8183
8182
8182
8182
8182
8182
8181
8181
8181
8181
8181
8181
8180
8180
8180
8180
8180
8181
8181
8181
8181
8181
8180
8180
8180
8180
8180
8180
8180
8180
8180
8180
8180
8180
8180
8180
8180
8180
8180
8180
8180
8179
8179
8179
8179
8179
8179
8179
8179
8179
8180
8180
8180
8180
8180
8180
8180
8180
8180
8180
8180
8180
8180
8180
8180
8180
8180
8180
8181
8181
8181
8181
8181
8181
8181
8181
8181
8180
8180
8180
8180
8181
8181
8181
8181
8181
8181
8181
8181
8181
8181
8181
8181
8181
8181
8181
8181
8181
8181
8182
8182
8182
8182
8182
8182
8182
8182
8182
8182
8182
8182
8182
8182
8182
8182
8182
8182
8182
8182
8182
8182
8182
8182
8183
8183
8183
8183
8183
8183
8183
8183
8183
8183
8183
8183
8183
8183
8183
8183
8183
8184
8184
8184
8184
8184
8185
8185
8185
8185
8185
8185
8185
8185
8186
8186
8186
8186
8186
8186
8186
8186
8187
8187
8187
8187
8188
8188
8189
8190
8191
8192
8193
8194
8194
8195
8196
8196
8197
8197
8198
8198
8199
8200
8201
8202
8203
8204
8205
8205
8206
8206
8206
8206
8205
8204
8204
8203
8203
8203
8202
8202
8201
8201
8200
8198
8197
8195
8193
8191
8190
8188
8186
8185
8183
8182
8182
8181
8181
8180
8180
8180
8180
8179
8179
8179
8179
8179
8179
8179
8179
8179
8179
8179
8180
8180
8180
8180
8179
8179
8178
8177
8176
8176
8176
8178
8182
8190
8203
8220
8244
8273
8308
8346
8387
8429
8468
8503
8529
8547
8552
8544
8524
8495
8457
8413
8367
8322
8281
8244
8214
8191
8174
8162
8154
8149
8147
8147
8147
8149
8150
8151
8152
8153
8154
8154
8155
8155
8155
8156
8156
8156
8156
8157
8157
8157
8157
8158
8158
8159
8159
8159
8160
8160
8160
8160
8160
8160
8160
8161
8161
8161
8161
8161
8161
8162
8162
8162
8162
8163
8163
8163
8163
8163
8163
8163
8164
8164
8164
8164
8164
8164
8165
8165
8165
8166
8166
8166
8167
8167
8167
8167
8168
8168
8168
8168
8168
8169
8169
8169
8170
8170
8170
8171
8171
8171
8172
8172
8173
8173
8174
8174
8175
8175
8176
8176
8177
8177
8178
8178
8179
8180
8181
8181
8182
8183
8184
8185
8185
8186
8188
8189
8190
8191
8193
8194
8195
8196
8198
8199
8200
8201
8201
8202
8203
8204
8205
8205
8206
8207
8208
8208
8209
8210
8210
8211
8211
8212
8212
8213
8213
8213
8213
8213
8213
8212
8212
8211
8211
8211
8210
8209
8209
8208
8207
8206
8205
8204
8203
8202
8200
8199
8198
8196
8195
8193
8192
8190
8189
8188
8186
8185
8184
8183
8182
8181
8180
8179
8179
8178
8177
8177
8176
8176
8176
8175
8175
8175
8175
8174
8174
8174
8174
8174
8174
8173
8173
8173
8173
8173
8173
8173
8174
8174
8174
8174
8174
8173
8173
8173
8173
8173
8173
8173
8173
8173
8173
8174
8174
8174
8174
8174
8174
8174
8175
8175
8175
8175
8175
8176
8176
8176
8177
8177
8178
8178
8178
8179
8179
8179
8179
8180
8180
8180
8180
8181
8181
8181
8181
8182
8182
8183
8183
8184
8184
8185
8185
8185
8186
8186
8186
8186
8186
8186
8186
8186
8186
8186
8186
8186
8186
8186
8186
8186
8186
8185
8185
8185
8185
8185
8184
8184
8184
8184
8184
8184
8183
8183
8183
8183
8183
8183
8183
8183
8183
8183
8183
8183
8182
8182
8182
8182
8182
8183
8183
8183
8183
8182
8182
8182
8182
8182
8182
8182
8182
8182
8182
8182
8182
8182
8182
8182
8182
8182
8182
8182
8182
8182
8182
8182
8182
8182
8182
8182
8183
8183
8183
8183
8183
8183
8183
8183
8183
8183
8183
8183
8183
8183
8183
8183
8183
8183
8183
8184
8184
8184
8184
8184
8184
8184
8184
8184
8184
8184
8184
8184
8184
8184
8184
8184
8184
8184
8184
8184
8184
8184
8184
8184
8184
8184
8184
8184
8184
8184
8184
8184
8184
8184
8184
8184
8184
8183
8183
8183
8183
8183
8183
8183
8183
8183
8184
8184
8184
8184
8184
8184
8184
8184
8184
8184
8184
8184
8184
8184
8185
8185
8185
8185
8185
8185
8185
8185
8185
8185
8185
8185
8185
8185
8185
8185
8185
8185
8185
8185
8185
8185
8185
8185
8185
8184
8184
8184
8184
8184
8184
8184
8184
8184
8184
8184
8185
8185
8185
8185
8185
8185
8185
8185
8185
8185
8185
8185
8185
8185
8185
8185
8185
8185
8185
8185
8185
8185
8185
8185
8186
8186
8186
8186
8186
8186
8186
8186
8186
8186
8185
8185
8185
8185
8185
8185
8185
8185
8185
8186
8187
8188
8189
8190
8191
8192
8193
8194
8195
8196
8197
8197
8198
8199
8199
8200
8201
8201
8202
8203
8204
8204
8205
8206
8206
8206
8206
8206
8205
8205
8204
8203
8203
8202
8201
8201
8200
8200
8199
8197
8196
8194
8193
8191
8189
8188
8186
8185
8184
8183
8182
8181
8181
8180
8180
8180
8179
8179
8180
8180
8180
8180
8181
8181
8181
8181
8181
8181
8181
8181
8180
8180
8179
8178
8177
8177
8177
8178
8181
8188
8198
8214
8235
8262
8295
8332
8373
8415
8455
8492
8523
8544
8554
8552
8537
8511
8475
8433
8387
8341
8297
8258
8225
8198
8178
8164
8155
8149
8146
8145
8146
8147
8148
8150
8151
8151
8152
8152
8153
8153
8153
8153
8153
8153
8154
8154
8154
8155
8155
8156
8156
8156
8157
8157
8157
8158
8158
8158
8159
8159
8159
8160
8160
8160
8160
8160
8161
8161
8161
8161
8161
8161
8161
8161
8162
8162
8162
8162
8163
8163
8163
8164
8164
8164
8164
8165
8165
8165
8165
8165
8165
8166
8166
8166
8167
8167
8167
8168
8168
8168
8169
8169
8169
8170
8170
8171
8171
8172
8172
8173
8173
8174
8174
8174
8174
8175
8175
8175
8176
8177
8177
8178
8179
8179
8180
8181
8182
8183
8183
8184
8185
8186
8187
8188
8189
8190
8191
8193
8194
8195
8196
8197
8198
8199
8200
8201
8201
8202
8203
8203
8204
8204
8204
8205
8205
8206
8206
8207
8207
8208
8208
8208
8209
8209
8209
8209
8209
8209
8209
8209
8208
8208
8207
8207
8206
8205
8205
8204
8203
8202
8201
8200
8199
8198
8197
8196
8194
8193
8191
8190
8189
8187
8186
8184
8183
8182
8181
8180
8179
8178
8178
8177
8176
8176
8175
8175
8175
8174
8174
8174
8173
8173
8173
8173
8173
8173
8173
8173
8173
8173
8173
8173
8173
8173
8173
8173
8173
8173
8173
8173
8173
8173
8173
8173
8173
8173
8173
8173
8174
8174
8174
8174
8174
8174
8174
8174
8174
8174
8175
8175
8175
8175
8175
8176
8176
8176
8176
8177
8177
8177
8178
8178
8178
8179
8179
8179
8179
8180
8180
8180
8180
8180
8181
8181
8181
8181
8181
8181
8181
8182
8182
8182
8182
8183
8183
8183
8183
8183
8183
8183
8182
8182
8182
8182
8182
8182
8182
8182
8181
8181
8181
8181
8181
8181
8181
8180
8180
8180
8180
8180
8180
8180
8180
8181
8181
8181
8181
8181
8181
8181
8181
8181
8180
8180
8180
8180
8180
8180
8180
8180
8180
8180
8180
8180
8180
8180
8180
8180
8180
8180
8180
8180
8180
8180
8180
8180
8180
8180
8180
8180
8180
8180
8180
8179
8179
8179
8179
8179
8179
8179
8179
8179
8179
8179
8180
8180
8180
8180
8180
8180
8181
8180
8180
8180
8180
8180
8180
8180
8180
8180
8180
8181
8181
8181
8181
8181
8181
8181
8181
8181
8181
8181
8181
8181
8181
8181
8181
8181
8181
8181
8181
8181
8181
8181
8181
8181
8181
8181
8181
8181
8181
8181
8181
8181
8182
8182
8182
8182
8182
8182
8182
8182
8182
8182
8182
8182
8182
8182
8182
8182
8183
8183
8183
8183
8183
8183
8183
8183
8183
8183
8183
8183
8183
8183
8183
8183
8183
8183
8183
8183
8183
8183
8183
8183
8183
8183
8183
8184
8184
8184
8184
8184
8184
8184
8184
8184
8185
8185
8185
8185
8185
8184
8184
8184
8184
8184
8184
8184
8184
8184
8184
8184
8184
8184
8184
8184
8184
8184
8184
8184
8184
8184
8184
8185
8185
8185
8185
8185
8186
8186
8186
8185
8185
8186
8185
8185
8185
8186
8185
8186
8186
8186
8186
8186
8186
8186
8186
8186
8186
8186
8186
8186
8186
8186
8186
8187
8187
8187
8188
8189
8190
8191
8192
8192
8193
8194
8195
8196
8196
8197
8197
8198
8198
8199
8200
8201
8202
8203
8204
8204
8205
8206
8206
8206
8205
8205
8204
8203
8203
8202
8202
8201
8201
8200
8199
8198
8197
8195
8194
8192
8190
8188
8186
8185
8183
8182
8181
8180
8180
8179
8179
8179
8179
8179
8179
8179
8179
8179
8179
8179
8180
8180
8180
8181
8181
8181
8181
8181
8181
8180
8179
8178
8178
8178
8179
8183
8190
8202
8218
8240
8268
8301
8339
8379
8420
8460
8495
8524
8543
8551
8546
8529
8501
8464
8421
8375
8328
8285
8247
8215
8190
8172
8159
8151
8146
8143
8143
8144
8146
8147
8149
8150
8152
8153
8154
8154
8155
8156
8156
8157
8157
8157
8158
8158
8158
8158
8158
8159
8159
8160
8160
8160
8160
8161
8161
8161
8161
8161
8161
8162
8162
8162
8162
8163
8163
8163
8163
8164
8164
8164
8165
8165
8165
8165
8165
8166
8166
8165
8166
8166
8166
8166
8167
8167
8167
8168
8168
8168
8168
8169
8169
8169
8169
8170
8170
8170
8170
8171
8171
8171
8171
8171
8171
8171
8172
8172
8173
8174
8174
8175
8175
8176
8177
8177
8178
8178
8178
8179
8179
8180
8180
8181
8182
8183
8183
8184
8185
8186
8187
8188
8189
8190
8191
8192
8193
8194
8195
8196
8197
8198
8199
8200
8200
8201
8202
8203
8203
8204
8205
8205
8206
8206
8207
8207
8208
8208
8208
8208
8208
8208
8208
8208
8208
8208
8207
8207
8207
8206
8206
8206
8205
8204
8204
8203
8203
8202
8201
8200
8200
8199
8197
8196
8195
8194
8192
8191
8190
8188
8187
8186
8185
8184
8183
8182
8182
8181
8180
8180
8179
8179
8178
8178
8177
8177
8176
8176
8176
8175
8175
8175
8175
8175
8175
8174
8174
8174
8174
8174
8174
8174
8174
8174
8174
8174
8173
8173
8173
8173
8172
8172
8173
8173
8173
8173
8174
8174
8174
8174
8174
8174
8174
8174
8174
8175
8175
8176
8176
8177
8177
8178
8178
8179
8179
8179
8180
8180
8181
8181
8182
8182
8183
8183
8183
8184
8184
8184
8185
8185
8185
8185
8185
8186
8186
8186
8187
8187
8187
8187
8187
8187
8187
8187
8186
8186
8186
8186
8186
8186
8186
8186
8186
8186
8186
8186
8185
8185
8185
8185
8185
8185
8184
8184
8184
8184
8184
8183
8183
8183
8183
8182
8182
8182
8181
8181
8181
8181
8181
8181
8181
8181
8181
8181
8181
8181
8181
8180
8180
8180
8180
8180
8180
8180
8180
8180
8181
8181
8181
8181
8181
8181
8180
8180
8180
8180
8180
8180
8180
8180
8180
8180
8181
8181
8181
8181
8181
8181
8181
8181
8181
8180
8180
8180
8180
8180
8180
8180
8180
8180
8180
8180
8180
8180
8180
8180
8180
8180
8180
8180
8180
8180
8180
8181
8181
8181
8181
8181
8181
8181
8181
8181
8181
8181
8181
8181
8181
8181
8181
8181
8181
8181
8181
8181
8181
8181
8181
8181
8181
8182
8182
8182
8182
8182
8182
8182
8182
8182
8182
8182
8182
8182
8182
8182
8182
8182
8183
8183
8183
8183
8183
8183
8183
8183
8183
8183
8183
8183
8183
8184
8185
8186
8187
8189
8190
8191
8192
8193
8194
8195
8196
8196
8197
8197
8198
8198
8199
8200
8200
8201
8201
8201
8202
8202
8202
8202
8201
8201
8201
8200
8200
8200
8200
8199
8199
8198
8197
8196
8194
8193
8191
8189
8187
8185
8184
8182
8181
8180
8179
8179
8178
8178
8177
8177
8177
8177
8177
8177
8177
8177
8177
8177
8177
8178
8178
8178
8178
8178
8177
8177
8176
8175
8175
8174
8174
8175
8177
8182
8190
8202
8219
8241
8268
8300
8336
8374
8413
8450
8482
8509
8526
8531
8524
8506
8477
8440
8397
8353
8309
8268
8233
8204
8182
8166
8156
8149
8145
8144
8144
8146
8147
8149
8151
8152
8153
8154
8154
8155
8156
8156
8157
8157
8157
8158
8158
8159
8159
8159
8159
8160
8160
8160
8160
8160
8161
8161
8161
8162
8162
8162
8162
8162
8163
8163
8163
8163
8163
8163
8164
8164
8164
8165
8165
8165
8165
8166
8166
8166
8167
8167
8167
8167
8168
8168
8168
8168
8169
8169
8170
8170
8170
8171
8171
8171
8171
8171
8172
8172
8172
8173
8173
8173
8174
8174
8174
8175
8175
8176
8176
8177
8177
8178
8178
8179
8179
8179
8180
8180
8181
8182
8182
8183
8184
8185
8186
8187
8188
8189
8190
8192
8193
8194
8195
8196
8197
8198
8199
8200
8202
8203
8204
8205
8207
8208
8209
8210
8211
8212
8213
8214
8214
8215
8215
8216
8216
8217
8217
8217
8217
8217
8217
8217
8217
8217
8217
8217
8217
8216
8216
8215
8215
8214
8213
8213
8211
8210
8209
8208
8207
8205
8204
8202
8200
8199
8197
8195
8194
8192
8190
8188
8187
8186
8184
8183
8182
8181
8179
8179
8178
8177
8176
8175
8175
8174
8174
8174
8173
8173
8173
8173
8173
8173
8172
8172
8172
8172
8172
8172
8172
8172
8172
8171
8171
8171
8171
8171
8171
8171
8171
8171
8171
8171
8171
8171
8171
8172
8172
8172
8172
8172
8172
8172
8173
8173
8174
8174
8174
8174
8175
8175
8175
8175
8176
8176
8176
8177
8177
8178
8178
8179
8179
8179
8180
8180
8180
8181
8181
8181
8182
8182
8182
8183
8183
8183
8184
8184
8185
8185
8185
8186
8186
8186
8187
8187
8187
8187
8187
8187
8187
8187
8187
8186
8186
8186
8186
8186
8186
8185
8185
8185
8185
8185
8185
8184
8184
8184
8184
8183
8183
8183
8183
8183
8182
8182
8182
8182
8182
8182
8182
8182
8182
8182
8182
8182
8182
8182
8182
8182
8182
8182
8181
8181
8181
8181
8181
8181
8181
8181
8181
8181
8181
8181
8181
8181
8181
8181
8181
8181
8181
8181
8181
8181
8181
8181
8181
8181
8181
8181
8181
8181
8181
8181
8181
8181
8182
8182
8182
8182
8182
8183
8183
8183
8183
8183
8183
8183
8183
8183
8183
8183
8183
8183
8183
8183
8183
8183
8183
8183
8183
8183
8183
8182
8183
8183
8183
8183
8183
8183
8183
8184
8184
8184
8184
8184
8184
8184
8184
8184
8184
8184
8184
8184
8185
8185
8185
8185
8185
8185
8185
8185
8185
8185
8185
8185
8185
8185
8185
8184
8184
8184
8184
8184
8184
8184
8184
8184
8184
8184
8185
8185
8185
8185
8185
8185
8185
8185
8186
8186
8187
8189
8190
8191
8192
8193
8194
8195
8195
8196
8197
8197
8198
8198
8199
8200
8201
8202
8203
8203
8204
8204
8205
8205
8204
8204
8204
8203
8203
8203
8202
8202
8201
8201
8200
8199
8197
8196
8194
8192
8190
8188
8186
8184
8183
8182
8181
8180
8179
8179
8178
8178
8178
8178
8178
8178
8179
8179
8179
8179
8179
8179
8179
8179
8179
8179
8179
8179
8179
8178
8177
8177
8176
8176
8176
8179
8183
8191
8202
8219
8241
8268
8300
8336
8375
8414
8451
8484
8510
8528
8533
8527
8509
8480
8444
8402
8357
8313
8273
8237
8208
8185
8169
8158
8151
8147
8145
8145
8146
8148
8149
8150
8152
8153
8153
8153
8154
8154
8155
8155
8155
8156
8156
8156
8157
8157
8157
8157
8158
8158
8158
8158
8159
8159
8159
8159
8160
8160
8160
8160
8161
8161
8161
8161
8162
8162
8162
8162
8163
8163
8163
8163
8164
8164
8164
8164
8164
8164
8164
8165
8165
8165
8165
8165
8166
8166
8167
8167
8167
8168
8168
8168
8168
8168
8169
8169
8169
8169
8170
8170
8170
8171
8171
8172
8172
8173
8173
8174
8175
8175
8176
8177
8177
8178
8179
8179
8180
8181
8182
8182
8183
8184
8185
8186
8187
8189
8190
8191
8192
8193
8194
8196
8196
8197
8199
8199
8200
8201
8203
8204
8205
8206
8207
8208
8209
8210
8211
8212
8213
8214
8215
8215
8216
8217
8217
8217
8218
8218
8218
8218
8218
8218
8218
8218
8219
8219
8218
8218
8218
8217
8216
8215
8214
8213
8212
8210
8209
8207
8206
8204
8202
8201
8199
8198
8196
8195
8193
8192
8190
8189
8187
8186
8184
8183
8182
8181
8181
8180
8179
8178
8177
8176
8176
8175
8175
8174
8174
8174
8173
8173
8173
8173
8173
8173
8173
8173
8173
8173
8173
8173
8173
8173
8173
8173
8173
8173
8173
8173
8173
8173
8173
8173
8173
8173
8174
8174
8174
8174
8174
8174
8174
8174
8175
8175
8175
8175
8175
8175
8176
8176
8176
8176
8177
8177
8177
8178
8178
8179
8179
8179
8180
8180
8181
8181
8181
8182
8182
8183
8183
8183
8184
8184
8184
8184
8184
8184
8185
8185
8185
8185
8185
8185
8185
8185
8185
8185
8185
8185
8185
8184
8184
8184
8184
8184
8184
8184
8184
8184
8184
8184
8183
8183
8183
8183
8183
8183
8182
8182
8182
8182
8182
8182
8181
8181
8181
8181
8181
8181
8181
8180
8180
8180
8180
8180
8179
8179
8179
8179
8179
8179
8179
8179
8179
8179
8179
8179
8179
8178
8178
8178
8178
8178
8178
8178
8178
8178
8179
8179
8179
8179
8179
8179
8179
8179
8179
8179
8179
8179
8179
8179
8179
8179
8179
8179
8179
8179
8179
8179
8179
8179
8179
8179
8179
8179
8179
8179
8179
8179
8179
8179
8179
8179
8179
8179
8179
8179
8179
8179
8179
8179
8179
8179
8179
8179
8179
8179
8179
8179
8179
8179
8179
8179
8179
8179
8179
8179
8179
8180
8180
8180
8180
8180
8180
8181
8181
8181
8181
8181
8181
8181
8181
8181
8181
8181
8181
8181
8181
8181
8182
8182
8182
8182
8182
8182
8182
8182
8182
8182
8182
8182
8182
8182
8182
8182
8183
8183
8183
8183
8183
8183
8183
8183
8183
8183
8183
8183
8183
8183
8183
8183
8183
8183
8184
8184
8184
8185
8186
8186
8187
8188
8189
8190
8191
8192
8193
8194
8195
8195
8196
8197
8198
8199
8200
8201
8202
8203
8204
8204
8204
8205
8204
8204
8204
8203
8203
8202
8202
8201
8201
8200
8199
8198
8197
8195
8193
8191
8189
8188
8186
8184
8183
8182
8181
8180
8179
8179
8179
8178
8178
8179
8179
8179
8179
8179
8179
8179
8179
8179
8180
8180
8180
8180
8180
8180
8180
8180
8179
8178
8178
8177
8176
8176
8178
8181
8187
8197
8212
8231
8255
8285
8318
8355
8394
8432
8467
8497
8519
8532
8532
8519
8496
8464
8424
8380
8335
8292
8253
8220
8193
8174
8160
8151
8145
8143
8142
8143
8144
8146
8147
8149
8150
8151
8152
8153
8153
8154
8154
8155
8155
8155
8156
8156
8156
8156
8157
8157
8157
8157
8157
8158
8158
8158
8158
8159
8159
8159
8159
8160
8160
8160
8161
8161
8161
8162
8162
8162
8163
8163
8163
8163
8163
8163
8163
8164
8164
8164
8164
8164
8164
8164
8165
8165
8165
8166
8166
8167
8167
8168
8168
8169
8169
8169
8170
8170
8170
8171
8171
8171
8171
8171
8171
8172
8172
8173
8173
8174
8174
8175
8175
8176
8177
8177
8178
8178
8179
8179
8180
8181
8181
8182
8183
8183
8184
8185
8186
8188
8189
8190
8192
8193
8194
8196
8197
8198
8199
8200
8201
8203
8204
8205
8206
8207
8208
8209
8210
8211
8211
8212
8213
8213
8214
8214
8214
8214
8215
8215
8215
8215
8215
8214
8214
8214
8214
8214
8213
8213
8213
8212
8211
8211
8210
8209
8208
8207
8206
8204
8203
8202
8200
8199
8197
8196
8194
8193
8191
8189
8187
8186
8184
8183
8181
8180
8179
8178
8178
8177
8177
8176
8176
8175
8175
8175
8174
8174
8173
8173
8173
8173
8173
8172
8172
8172
8172
8172
8171
8171
8171
8171
8171
8170
8170
8170
8170
8170
8170
8170
8170
8170
8170
8170
8170
8170
8171
8171
8171
8171
8171
8171
8171
8172
8172
8172
8172
8173
8173
8174
8174
8175
8175
8176
8177
8177
8178
8178
8179
8179
8179
8180
8180
8181
8181
8181
8182
8182
8183
8183
8184
8184
8184
8184
8185
8185
8185
8185
8185
8185
8186
8186
8186
8186
8186
8186
8186
8186
8186
8186
8186
8186
8186
8186
8186
8185
8185
8185
8185
8185
8184
8184
8184
8183
8183
8183
8182
8182
8182
8182
8182
8181
8181
8181
8181
8181
8180
8180
8180
8180
8180
8180
8180
8180
8180
8180
8179
8179
8179
8179
8179
8179
8179
8179
8179
8179
8179
8179
8179
8179
8179
8179
8179
8179
8179
8179
8179
8179
8179
8179
8179
8179
8179
8179
8179
8178
8178
8178
8178
8178
8178
8178
8178
8178
8178
8179
8179
8179
8179
8179
8179
8179
8179
8179
8179
8179
8179
8179
8180
8180
8180
8180
8180
8180
8180
8180
8180
8180
8180
8181
8181
8181
8181
8181
8181
8181
8181
8181
8181
8181
8181
8181
8181
8181
8181
8181
8180
8180
8180
8180
8181
8181
8181
8181
8181
8181
8181
8181
8181
8181
8181
8181
8181
8181
8181
8181
8181
8181
8181
8181
8181
8182
8182
8182
8182
8182
8182
8182
8182
8183
8183
8183
8184
8185
8186
8187
8188
8189
8190
8191
8192
8193
8194
8194
8195
8196
8196
8197
8198
8199
8200
8201
8202
8202
8203
8203
8203
8203
8203
8203
8202
8201
8201
8200
8200
8200
8199
8199
8198
8196
8195
8193
8191
8189
8187
8185
8183
8182
8180
8179
8178
8178
8177
8177
8177
8177
8177
8177
8177
8177
8177
8177
8177
8177
8177
8177
8178
8178
8178
8178
8178
8178
8178
8177
8177
8176
8175
8175
8175
8177
8180
8186
8195
8208
8226
8250
8278
8311
8347
8386
8425
8461
8492
8516
8530
8531
8521
8499
8468
8428
8384
8339
8296
8256
8223
8195
8175
8161
8152
8146
8143
8143
8144
8145
8147
8149
8150
8151
8152
8153
8154
8154
8155
8155
8155
8155
8156
8156
8156
8157
8157
8157
8157
8158
8158
8159
8159
8159
8160
8160
8160
8160
8161
8161
8161
8161
8161
8161
8162
8162
8162
8163
8163
8163
8164
8164
8164
8164
8165
8165
8165
8165
8165
8165
8166
8166
8166
8167
8167
8167
8167
8168
8168
8168
8168
8169
8169
8169
8170
8170
8170
8171
8171
8171
8172
8172
8172
8173
8173
8174
8174
8174
8175
8175
8176
8176
8177
8177
8178
8179
8179
8180
8181
8182
8182
8183
8184
8185
8186
8187
8188
8190
8191
8192
8193
8195
8196
8197
8198
8199
8200
8201
8202
8203
8204
8205
8206
8207
8208
8209
8210
8211
8212
8213
8213
8214
8215
8215
8216
8216
8217
8217
8217
8217
8217
8217
8217
8217
8217
8217
8216
8216
8216
8215
8214
8214
8213
8212
8211
8210
8209
8208
8206
8205
8204
8202
8201
8199
8197
8195
8194
8192
8190
8188
8187
8185
8184
8182
8181
8180
8179
8178
8177
8177
8176
8176
8175
8175
8175
8174
8174
8174
8173
8173
8173
8172
8172
8172
8172
8172
8172
8171
8171
8171
8171
8171
8171
8171
8171
8171
8171
8171
8171
8171
8171
8172
8172
8172
8173
8173
8173
8173
8173
8173
8174
8174
8174
8174
8174
8174
8174
8174
8175
8175
8175
8175
8176
8176
8176
8177
8177
8178
8178
8179
8179
8179
8180
8180
8181
8181
8181
8181
8182
8182
8182
8183
8183
8183
8184
8184
8185
8185
8186
8186
8186
8186
8186
8186
8186
8186
8186
8186
8186
8186
8186
8186
8186
8185
8185
8185
8185
8184
8184
8184
8184
8184
8184
8184
8184
8184
8184
8183
8183
8183
8183
8183
8183
8183
8182
8182
8182
8182
8182
8182
8181
8181
8181
8181
8181
8181
8181
8181
8181
8182
8182
8182
8182
8182
8182
8181
8182
8182
8182
8182
8182
8182
8182
8182
8182
8182
8182
8182
8182
8182
8182
8182
8182
8182
8182
8182
8182
8182
8182
8182
8182
8182
8182
8182
8182
8182
8182
8182
8182
8182
8182
8182
8182
8183
8183
8183
8183
8183
8183
8183
8183
8183
8183
8183
8183
8183
8183
8183
8183
8183
8183
8183
8183
8183
8183
8183
8183
8183
8183
8183
8183
8183
8183
8183
8183
8183
8183
8183
8184
8184
8184
8184
8184
8184
8184
8184
8183
8183
8183
8183
8183
8183
8183
8183
8184
8184
8184
8184
8184
8185
8185
8185
8185
8185
8185
8185
8185
8185
8185
8185
8185
8185
8186
8186
8186
8186
8186
8186
8186
8186
8186
8186
8186
8186
8186
8186
8186
8186
8186
8186
8186
8187
8187
8187
8187
8187
8187
8187
8187
8187
8187
8187
8187
8187
8187
8187
8187
8187
8187
8187
8188
8188
8188
8188
8188
8189
8189
8189
8189
8189
8188
8188
8188
8188
8188
8188
8188
8188
8188
8188
8188
8188
8188
8188
8188
8188
8188
8188
8188
8188
8188
8188
8189
8189
8189
8189
8189
8189
8189
8189
8189
8188
8188
8188
8188
8189
8189
8190
8190
8190
8190
8190
8190
8190
8190
8190
8190
8190
8190
8190
8190
8190
8190
8190
8190
8190
8191
8191
8192
8193
8194
8195
8196
8197
8198
8199
8199
8200
8200
8201
8201
8202
8203
8203
8204
8205
8206
8207
8208
8208
8209
8209
8209
8209
8209
8209
8208
8208
8207
8207
8206
8206
8205
8204
8203
8202
8201
8199
8198
8196
8194
8192
8190
8188
8187
8186
8184
8183
8183
8182
8182
8182
8181
8181
8181
8181
8181
8181
8182
8182
8182
8182
8182
8183
8183
8183
8183
8182
8182
8181
8180
8180
8179
8179
8181
8185
8192
8203
8219
8241
8268
8300
8337
8377
8419
8459
8495
8524
8545
8554
8551
8536
8510
8475
8433
8387
8341
8298
8259
8226
8200
8181
8167
8158
8153
8150
8149
8150
8151
8152
8153
8154
8155
8155
8156
8156
8156
8156
8156
8156
8156
8156
8157
8157
8157
8158
8158
8158
8159
8159
8159
8160
8160
8160
8160
8160
8160
8161
8161
8161
8161
8161
8161
8161
8162
8162
8163
8163
8163
8163
8164
8164
8164
8164
8165
8165
8165
8165
8166
8166
8166
8166
8166
8167
8167
8167
8167
8167
8167
8167
8168
8168
8168
8169
8169
8169
8170
8170
8171
8171
8172
8172
8173
8173
8174
8174
8174
8175
8175
8175
8176
8176
8177
8177
8178
8179
8179
8180
8181
8181
8182
8182
8183
8183
8184
8185
8185
8186
8187
8188
8189
8191
8192
8193
8194
8195
8196
8197
8198
8199
8200
8200
8201
8202
8203
8203
8204
8205
8205
8206
8206
8207
8207
8208
8208
8208
8208
8208
8209
8209
8209
8209
8209
8209
8209
8209
8208
8208
8208
8207
8207
8207
8206
8206
8205
8205
8204
8203
8202
8201
8200
8199
8197
8196
8194
8193
8191
8190
8189
8187
8186
8185
8184
8183
8182
8181
8181
8180
8179
8179
8178
8178
8177
8177
8176
8176
8175
8175
8175
8175
8175
8174
8174
8174
8174
8174
8174
8174
8173
8173
8173
8173
8173
8173
8173
8173
8173
8173
8173
8173
8174
8174
8174
8174
8174
8175
8175
8175
8175
8175
8175
8175
8175
8175
8175
8175
8175
8175
8176
8176
8176
8176
8177
8177
8177
8177
8178
8178
8178
8178
8178
8179
8179
8179
8179
8179
8180
8180
8180
8180
8180
8181
8181
8181
8181
8182
8182
8182
8182
8182
8183
8183
8183
8183
8183
8183
8183
8183
8183
8183
8182
8182
8182
8182
8182
8181
8181
8181
8181
8181
8181
8181
8181
8181
8180
8180
8180
8180
8180
8180
8179
8179
8179
8179
8179
8179
8179
8179
8179
8179
8179
8178
8178
8178
8178
8178
8178
8179
8179
8179
8179
8179
8179
8179
8179
8179
8179
8179
8178
8178
8178
8178
8178
8178
8178
8178
8178
8178
8178
8178
8178
8178
8177
8177
8177
8177
8177
8177
8177
8177
8177
8177
8177
8177
8177
8177
8177
8177
8177
8177
8177
8177
8177
8177
8177
8177
8177
8177
8178
8178
8178
8178
8178
8178
8178
8178
8177
8177
8177
8177
8177
8177
8177
8177
8177
8178
8178
8178
8178
8178
8178
8178
8178
8178
8178
8178
8178
8178
8178
8178
8178
8178
8178
8178
8178
8178
8178
8178
8178
8178
8178
8178
8178
8178
8178
8178
8178
8179
8179
8179
8179
8180
8180
8180
8180
8180
8180
8180
8180
8180
8180
8180
8180
8180
8180
8180
8181
8181
8181
8181
8181
8181
8181
8181
8181
8181
8181
8181
8181
8181
8181
8181
8181
8181
8181
8181
8181
8181
8181
8180
8181
8181
8181
8181
8181
8182
8182
8182
8182
8182
8182
8182
8182
8182
8181
8181
8181
8181
8181
8181
8181
8181
8181
8182
8182
8182
8182
8182
8183
8183
8183
8183
8183
8183
8183
8183
8183
8183
8183
8183
8183
8183
8184
8184
8184
8184
8184
8184
8184
8184
8184
8184
8184
8184
8184
8184
8184
8184
8184
8184
8184
8184
8184
8183
8183
8183
8183
8183
8183
8183
8183
8183
8183
8184
8184
8184
8184
8184
8184
8185
8185
8185
8185
8185
8185
8185
8185
8185
8185
8185
8185
8185
8185
8185
8185
8185
8185
8185
8185
8185
8185
8185
8185
8186
8186
8186
8186
8187
8187
8188
8189
8190
8191
8192
8193
8194
8195
8195
8196
8197
8197
8198
8199
8200
8201
8203
8204
8204
8205
8206
8206
8206
8206
8206
8206
8205
8205
8204
8203
8202
8202
8201
8200
8199
8197
8196
8195
8193
8191
8189
8188
8186
8185
8184
8183
8182
8182
8181
8181
8180
8180
8180
8180
8180
8179
8179
8179
8179
8179
8179
8179
8180
8180
8179
8179
8179
8179
8178
8177
8177
8176
8176
8177
8181
8188
8199
8215
8237
8265
8299
8336
8377
8419
8459
8495
8524
8544
8552
8548
8531
8504
8468
8425
8378
8332
8289
8250
8218
8192
8174
8160
8152
8146
8144
8143
8144
8145
8146
8148
8149
8150
8151
8151
8152
8152
8152
8152
8153
8153
8153
8154
8154
8154
8155
8155
8155
8155
8155
8156
8156
8156
8156
8156
8156
8156
8156
8156
8157
8157
8157
8158
8158
8158
8159
8159
8160
8160
8160
8160
8161
8161
8161
8161
8162
8162
8163
8163
8163
8164
8164
8164
8164
8164
8165
8165
8165
8165
8165
8166
8166
8166
8166
8167
8167
8167
8167
8167
8168
8168
8169
8169
8169
8170
8171
8171
8171
8172
8172
8173
8173
8174
8174
8175
8176
8176
8177
8177
8178
8179
8179
8180
8180
8181
8182
8183
8184
8184
8185
8186
8187
8188
8189
8190
8191
8192
8193
8194
8195
8196
8197
8197
8198
8199
8199
8200
8200
8201
8202
8202
8203
8203
8203
8203
8204
8204
8204
8204
8204
8204
8204
8204
8204
8204
8203
8203
8203
8202
8202
8202
8201
8201
8200
8200
8200
8199
8199
8198
8197
8197
8196
8195
8195
8194
8193
8192
8190
8189
8188
8187
8186
8185
8184
8183
8182
8182
8181
8180
8179
8178
8178
8178
8177
8177
8177
8177
8176
8176
8176
8175
8175
8175
8175
8175
8175
8175
8175
8175
8175
8175
8175
8175
8175
8175
8175
8175
8174
8174
8174
8175
8175
8175
8175
8175
8175
8176
8176
8176
8176
8176
8176
8177
8177
8177
8178
8178
8179
8179
8179
8180
8181
8181
8181
8181
8182
8182
8182
8182
8182
8182
8183
8183
8184
8184
8184
8185
8185
8185
8185
8185
8185
8185
8185
8185
8185
8185
8185
8185
8185
8185
8185
8185
8185
8185
8185
8185
8185
8185
8184
8184
8184
8184
8184
8184
8184
8184
8184
8184
8184
8184
8184
8184
8184
8183
8183
8183
8183
8183
8182
8182
8182
8182
8181
8181
8181
8181
8181
8181
8181
8181
8181
8181
8181
8180
8180
8180
8180
8180
8180
8180
8180
8180
8180
8180
8180
8180
8180
8180
8180
8180
8180
8180
8180
8180
8180
8180
8180
8180
8180
8180
8180
8180
8180
8180
8180
8180
8180
8180
8180
8180
8180
8179
8179
8179
8179
8179
8179
8179
8179
8179
8179
8179
8179
8180
8180
8180
8180
8180
8180
8180
8180
8180
8180
8181
8181
8181
8181
8181
8181
8181
8181
8181
8181
8181
8181
8181
8181
8181
8181
8181
8182
8182
8182
8182
8182
8182
8182
8182
8181
8181
8181
8181
8181
8181
8181
8181
8181
8181
8181
8181
8181
8182
8182
8182
8182
8182
8182
8182
8182
8182
8183
8183
8183
8183
8183
8183
8183
8183
8183
8184
8184
8184
8184
8184
8184
8184
8184
8184
8184
8184
8185
8185
8185
8185
8185
8185
8185
8185
8185
8185
8185
8185
8185
8185
8185
8185
8185
8185
8185
8185
8185
8185
8185
8185
8185
8185
8186
8186
8187
8187
8188
8189
8190
8191
8192
8193
8194
8195
8195
8196
8197
8197
8198
8199
8200
8201
8202
8203
8204
8205
8205
8206
8206
8206
8206
8205
8205
8204
8203
8203
8203
8202
8201
8201
8200
8199
8198
8196
8195
8193
8191
8189
8187
8186
8184
8183
8182
8181
8180
8179
8179
8178
8178
8178
8178
8178
8178
8178
8178
8178
8179
8179
8179
8179
8179
8179
8179
8179
8179
8178
8177
8176
8176
8176
8178
8182
8188
8199
8215
8236
8262
8294
8330
8369
8410
8449
8485
8514
8536
8546
8543
8529
8503
8469
8427
8381
8336
8293
8254
8221
8194
8175
8162
8153
8147
8144
8143
8144
8145
8147
8148
8150
8151
8152
8152
8153
8154
8154
8154
8154
8155
8155
8156
8156
8156
8157
8157
8157
8157
8157
8158
8158
8158
8158
8159
8159
8159
8160
8160
8160
8161
8161
8161
8161
8162
8162
8162
8162
8162
8162
8162
8163
8163
8163
8163
8163
8163
8163
8163
8164
8164
8164
8164
8165
8165
8166
8166
8167
8167
8167
8168
8168
8168
8169
8169
8169
8170
8170
8171
8171
8171
8172
8172
8172
8172
8173
8173
8173
8174
8174
8175
8176
8176
8177
8178
8178
8179
8179
8180
8181
8181
8182
8183
8184
8185
8186
8187
8188
8189
8190
8192
8192
8193
8194
8195
8196
8197
8198
8199
8200
8201
8202
8203
8204
8205
8206
8207
8207
8208
8208
8209
8209
8210
8210
8210
8210
8210
8210
8210
8210
8210
8210
8210
8210
8210
8209
8209
8209
8208
8208
8207
8207
8206
8205
8204
8203
8203
8202
8201
8200
8199
8198
8197
8195
8194
8192
8190
8189
8188
8186
8185
8184
8183
8182
8182
8181
8180
8180
8179
8179
8178
8178
8177
8177
8176
8176
8175
8175
8175
8174
8174
8174
8174
8174
8173
8173
8173
8173
8173
8173
8173
8173
8173
8173
8174
8174
8174
8174
8174
8174
8174
8175
8175
8175
8175
8175
8175
8175
8175
8176
8176
8176
8176
8176
8176
8177
8177
8177
8178
8178
8178
8179
8179
8179
8180
8180
8180
8181
8181
8181
8181
8182
8182
8182
8183
8183
8184
8184
8185
8185
8185
8185
8186
8186
8186
8186
8186
8186
8186
8186
8187
8187
8187
8187
8187
8187
8187
8187
8186
8186
8186
8186
8186
8186
8186
8186
8186
8186
8185
8185
8185
8185
8185
8184
8184
8184
8184
8183
8183
8183
8183
8182
8182
8182
8182
8182
8182
8182
8182
8183
8183
8183
8183
8183
8182
8182
8182
8182
8182
8182
8182
8182
8182
8182
8182
8182
8182
8182
8182
8182
8182
8182
8182
8182
8182
8181
8181
8181
8181
8181
8181
8181
8181
8181
8181
8181
8181
8182
8182
8182
8182
8182
8182
8182
8182
8182
8182
8182
8182
8182
8182
8182
8182
8182
8182
8182
8182
8182
8182
8182
8182
8182
8182
8182
8182
8182
8182
8183
8183
8183
8183
8183
8183
8183
8183
8183
8183
8183
8183
8183
8183
8183
8183
8183
8183
8183
8183
8183
8183
8184
8184
8184
8184
8184
8185
8185
8185
8185
8185
8185
8185
8185
8185
8185
8185
8185
8185
8185
8185
8185
8185
8185
8185
8185
8185
8185
8185
8185
8185
8185
8185
8185
8185
8185
8185
8185
8185
8186
8186
8186
8186
8185
8185
8185
8185
8185
8185
8185
8185
8186
8186
8186
8186
8186
8185
8185
8185
8185
8185
8185
8185
8185
8186
8186
8186
8186
8186
8186
8186
8186
8186
8187
8187
8187
8188
8189
8189
8190
8191
8192
8193
8194
8195
8196
8196
8197
8197
8198
8199
8200
8200
8201
8202
8203
8203
8204
8204
8205
8205
8205
8205
8205
8204
8204
8203
8203
8202
8202
8201
8200
8200
8199
8198
8197
8195
8193
8191
8189
8187
8185
8184
8183
8182
8181
8181
8181
8180
8180
8180
8179
8179
8179
8179
8179
8179
8179
8180
8180
8180
8181
8181
8181
8181
8180
8180
8179
8178
8178
8177
8176
8176
8179
8183
8190
8202
8219
8242
8270
8304
8342
8383
8424
8463
8498
8526
8545
8551
8545
8527
8499
8462
8418
8372
8327
8284
8247
8215
8191
8173
8161
8153
8148
8146
8145
8146
8147
8148
8149
8150
8151
8152
8153
8153
8154
8154
8154
8154
8154
8154
8154
8154
8154
8155
8155
8155
8155
8156
8156
8156
8157
8157
8158
8158
8158
8159
8159
8159
8159
8159
8160
8160
8160
8160
8160
8160
8160
8161
8161
8161
8162
8162
8162
8163
8163
8163
8164
8164
8164
8164
8164
8165
8165
8165
8165
8166
8166
8166
8166
8167
8167
8167
8167
8168
8168
8168
8169
8169
8169
8170
8170
8171
8171
8171
8172
8172
8172
8172
8173
8173
8174
8175
8175
8176
8177
8177
8178
8179
8180
8180
8181
8182
8183
8183
8184
8185
8186
8187
8188
8189
8190
8192
8193
8194
8196
8197
8198
8199
8200
8201
8202
8203
8203
8204
8205
8206
8207
8207
8208
8208
8209
8209
8209
8210
8210
8210
8211
8211
8211
8211
8211
8211
8211
8211
8211
8211
8210
8210
8209
8209
8208
8207
8206
8205
8204
8203
8202
8201
8199
8198
8196
8195
8193
8192
8190
8189
8188
8186
8185
8183
8182
8181
8180
8179
8179
8178
8177
8177
8176
8176
8175
8175
8175
8174
8174
8174
8174
8173
8173
8173
8173
8173
8173
8173
8172
8172
8172
8172
8172
8172
8172
8172
8173
8173
8173
8173
8173
8173
8173
8174
8174
8174
8174
8174
8174
8174
8174
8175
8175
8175
8176
8176
8177
8177
8177
8177
8177
8178
8178
8178
8178
8178
8178
8179
8179
8179
8180
8180
8181
8181
8181
8181
8182
8182
8182
8182
8182
8183
8183
8183
8184
8184
8184
8184
8185
8185
8185
8185
8185
8185
8185
8185
8185
8185
8185
8185
8185
8185
8185
8185
8185
8185
8184
8184
8184
8184
8183
8183
8183
8183
8183
8183
8183
8183
8183
8183
8183
8183
8183
8183
8182
8182
8182
8182
8182
8182
8182
8182
8182
8182
8181
8181
8181
8181
8181
8180
8180
8180
8180
8180
8180
8180
8180
8181
8181
8181
8181
8181
8181
8181
8181
8181
8181
8181
8181
8180
8180
8180
8180
8181
8181
8181
8181
8181
8181
8181
8181
8181
8181
8181
8181
8181
8181
8181
8181
8181
8181
8181
8181
8181
8180
8180
8180
8180
8180
8180
8180
8180
8180
8180
8180
8180
8180
8181
8181
8181
8181
8181
8182
8182
8182
8182
8182
8182
8182
8182
8182
8182
8182
8182
8182
8182
8182
8182
8182
8183
8183
8183
8183
8183
8183
8183
8183
8183
8183
8183
8183
8184
8184
8184
8184
8184
8184
8183
8183
8183
8183
8183
8183
8183
8183
8183
8183
8183
8183
8183
8183
8183
8183
8183
8184
8184
8184
8184
8184
8184
8184
8185
8185
8184
8184
8185
8185
8185
8185
8185
8185
8185
8184
8184
8184
8184
8184
8184
8183
8183
8183
8183
8183
8183
8183
8183
8184
8184
8184
8184
8185
8185
8185
8185
8186
8186
8186
8186
8186
8186
8186
8186
8186
8186
8186
8186
8186
8186
8186
8186
8186
8186
8186
8186
8187
8187
8187
8187
8187
8188
8188
8188
8188
8188
8187
8187
8187
8187
8187
8188
8188
8189
8190
8191
8192
8193
8194
8195
8195
8196
8196
8197
8197
8198
8198
8199
8200
8201
8202
8203
8204
8204
8205
8205
8206
8205
8205
8205
8205
8204
8204
8204
8203
8203
8202
8201
8200
8199
8197
8195
8193
8191
8189
8187
8186
8185
8183
8183
8182
8181
8181
8180
8180
8179
8179
8178
8178
8178
8178
8178
8178
8178
8178
8178
8179
8179
8179
8179
8179
8178
8178
8177
8176
8175
8174
8174
8175
8179
8185
8196
8212
8233
8261
8293
8330
8371
8412
8452
8489
8519
8539
8549
8546
8531
8505
8470
8428
8382
8336
8292
8253
8220
8193
8174
8160
8150
8145
8142
8141
8141
8142
8144
8145
8146
8147
8148
8149
8150
8150
8150
8150
8151
8151
8151
8151
8151
8151
8152
8152
8152
8153
8153
8153
8154
8154
8154
8154
8155
8155
8155
8155
8155
8155
8156
8156
8156
8157
8157
8157
8158
8158
8159
8159
8159
8160
8160
8160
8161
8161
8161
8161
8161
8161
8161
8161
8161
8161
8161
8162
8162
8162
8163
8163
8163
8164
8164
8164
8165
8165
8165
8166
8166
8166
8167
8167
8167
8168
8168
8169
8169
8170
8170
8171
8171
8172
8172
8173
8173
8174
8174
8175
8176
8176
8177
8178
8179
8180
8181
8182
8183
8183
8184
8185
8186
8187
8188
8190
8191
8192
8193
8194
8196
8197
8198
8199
8200
8200
8201
8202
8203
8204
8204
8205
8205
8206
8206
8206
8206
8206
8207
8207
8207
8207
8207
8207
8207
8207
8207
8206
8206
8206
8205
8205
8204
8204
8203
8203
8202
8201
8200
8199
8198
8197
8196
8195
8193
8192
8190
8189
8188
8186
8185
8184
8183
8182
8181
8180
8179
8179
8178
8177
8177
8176
8175
8175
8174
8174
8174
8173
8173
8173
8173
8173
8173
8173
8172
8172
8172
8172
8171
8171
8171
8171
8171
8171
8171
8171
8171
8171
8171
8171
8171
8171
8172
8172
8172
8172
8172
8173
8173
8173
8174
8174
8174
8174
8174
8175
8175
8175
8175
8175
8176
8176
8176
8176
8176
8177
8177
8178
8178
8179
8179
8179
8179
8180
8180
8180
8181
8181
8181
8182
8182
8183
8183
8183
8183
8183
8183
8183
8183
8183
8184
8184
8184
8184
8184
8184
8184
8184
8184
8184
8184
8183
8183
8183
8183
8182
8182
8182
8182
8182
8182
8181
8181
8181
8181
8181
8181
8181
8181
8180
8180
8180
8180
8180
8180
8180
8180
8180
8180
8179
8179
8179
8179
8179
8179
8179
8179
8179
8179
8179
8179
8179
8179
8179
8179
8179
8179
8179
8179
8179
8179
8179
8179
8179
8179
8179
8179
8179
8179
8179
8179
8179
8179
8179
8179
8179
8179
8179
8178
8179
8179
8179
8179
8179
8179
8179
8179
8179
8179
8179
8179
8179
8180
8180
8180
8180
8180
8180
8180
8180
8180
8180
8180
8179
8179
8179
8179
8179
8179
8179
8179
8180
8180
8180
8180
8181
8181
8181
8181
8181
8181
8181
8181
8181
8182
8182
8182
8182
8182
8183
8183
8183
8183
8183
8182
8182
8182
8182
8182
8182
8182
8182
8182
8182
8182
8182
8183
8183
8183
8182
8182
8182
8182
8182
8182
8182
8183
8183
8183
8183
8183
8183
8184
8184
8184
8184
8183
8183
8183
8183
8184
8184
8184
8184
8185
8185
8185
8185
8185
8185
8186
8186
8187
8187
8188
8189
8190
8191
8192
8193
8193
8194
8195
8195
8196
8197
8198
8198
8199
8200
8201
8202
8203
8204
8204
8205
8205
8205
8205
8205
8205
8204
8204
8203
8203
8202
8201
8200
8200
8198
8197
8196
8194
8192
8190
8188
8186
8185
8183
8182
8181
8180
8179
8179
8178
8178
8178
8178
8178
8178
8178
8178
8178
8178
8178
8178
8178
8178
8179
8179
8178
8178
8178
8178
8177
8176
8176
8176
8176
8178
8182
8189
8200
8215
8236
8262
8294
8329
8368
8407
8444
8478
8505
8523
8530
8524
8507
8479
8443
8401
8356
8311
8270
8234
8204
8181
8165
8154
8147
8143
8141
8142
8143
8145
8147
8149
8151
8153
8154
8155
8156
8156
8156
8157
8157
8158
8158
8158
8158
8159
8159
8159
8159
8159
8159
8159
8160
8160
8160
8160
8161
8161
8162
8162
8163
8163
8163
8164
8164
8164
8164
8165
8165
8165
8165
8165
8165
8165
8166
8166
8166
8167
8167
8167
8167
8168
8168
8168
8168
8169
8169
8169
8169
8169
8170
8170
8170
8170
8170
8171
8171
8171
8171
8172
8172
8172
8172
8173
8173
8174
8174
8175
8175
8176
8176
8177
8177
8178
8179
8179
8180
8181
8181
8182
8183
8184
8184
8185
8186
8187
8188
8189
8190
8192
8193
8194
8195
8196
8197
8199
8200
8201
8202
8202
8203
8204
8205
8206
8207
8208
8209
8210
8211
8212
8213
8213
8214
8214
8215
8215
8215
8215
8215
8215
8215
8215
8215
8215
8215
8215
8215
8215
8214
8214
8213
8212
8211
8210
8209
8208
8207
8205
8204
8203
8201
8200
8198
8197
8195
8194
8192
8190
8189
8188
8186
8185
8184
8183
8182
8181
8180
8179
8179
8178
8177
8177
8176
8176
8175
8175
8175
8174
8174
8174
8173
8173
8173
8173
8173
8173
8173
8172
8173
8173
8173
8173
8173
8173
8173
8173
8173
8174
8174
8174
8175
8175
8175
8175
8175
8175
8175
8175
8175
8176
8176
8176
8176
8176
8176
8176
8176
8176
8176
8177
8177
8177
8177
8178
8178
8178
8179
8179
8179
8180
8180
8181
8181
8181
8182
8182
8183
8183
8183
8184
8184
8184
8185
8185
8185
8185
8185
8185
8185
8185
8185
8185
8185
8185
8185
8184
8184
8184
8184
8184
8185
8185
8185
8184
8184
8184
8184
8183
8183
8183
8182
8182
8182
8181
8181
8181
8181
8180
8180
8180
8179
8179
8179
8179
8179
8179
8179
8179
8179
8179
8179
8179
8179
8179
8179
8179
8179
8179
8179
8179
8179
8179
8179
8179
8178
8178
8178
8178
8178
8178
8178
8178
8178
8178
8178
8178
8178
8178
8178
8178
8178
8178
8178
8178
8178
8178
8178
8178
8179
8179
8179
8179
8179
8179
8179
8179
8179
8178
8178
8178
8178
8178
8179
8179
8179
8179
8179
8179
8179
8179
8179
8179
8179
8180
8180
8180
8180
8180
8180
8180
8180
8180
8181
8181
8181
8181
8181
8181
8181
8180
8180
8181
8181
8181
8181
8181
8181
8181
8181
8181
8181
8181
8180
8180
8180
8180
8181
8181
8181
8181
8181
8181
8182
8182
8182
8182
8182
8182
8182
8182
8182
8182
8183
8183
8183
8183
8183
8183
8184
8184
8184
8184
8184
8184
8184
8184
8184
8185
8185
8185
8186
8186
8187
8188
8189
8190
8191
8192
8193
8194
8194
8195
8196
8197
8197
8198
8199
8200
8201
8202
8203
8204
8204
8205
8205
8205
8205
8205
8204
8204
8203
8203
8202
8202
8201
8201
8200
8200
8199
8198
8196
8195
8193
8191
8189
8187
8186
8184
8183
8182
8181
8180
8180
8179
8179
8179
8179
8179
8179
8179
8179
8179
8179
8179
8179
8179
8179
8179
8179
8179
8179
8178
8178
8178
8177
8176
8176
8175
8176
8178
8183
8192
8205
8224
8248
8278
8314
8353
8394
8435
8474
8507
8532
8547
8549
8539
8517
8485
8445
8401
8354
8310
8269
8234
8205
8183
8167
8157
8150
8146
8144
8144
8145
8147
8148
8149
8150
8151
8152
8152
8153
8153
8153
8153
8153
8153
8154
8154
8154
8155
8155
8156
8156
8157
8157
8157
8158
8158
8158
8158
8158
8158
8159
8159
8159
8159
8160
8160
8160
8161
8161
8161
8161
8162
8162
8162
8163
8163
8163
8164
8164
8164
8164
8165
8165
8165
8165
8165
8165
8165
8165
8165
8165
8165
8165
8166
8166
8167
8167
8168
8168
8169
8169
8170
8170
8171
8171
8171
8172
8172
8173
8173
8174
8174
8175
8175
8176
8176
8176
8177
8177
8178
8179
8179
8180
8181
8181
8182
8183
8184
8185
8185
8186
8187
8189
8190
8191
8193
8194
8195
8197
8198
8199
8200
8201
8202
8203
8204
8205
8206
8206
8207
8208
8209
8210
8210
8211
8211
8212
8212
8213
8213
8213
8213
8213
8213
8213
8213
8213
8212
8212
8212
8212
8211
8211
8210
8210
8209
8208
8207
8206
8204
8203
8202
8201
8199
8198
8196
8195
8193
8191
8189
8188
8186
8185
8183
8182
8181
8180
8179
8178
8178
8177
8176
8176
8175
8175
8174
8174
8173
8173
8173
8172
8172
8172
8172
8172
8172
8172
8172
8172
8172
8172
8172
8172
8172
8172
8172
8172
8172
8172
8172
8172
8172
8172
8172
8173
8173
8173
8173
8174
8174
8174
8174
8174
8174
8174
8174
8174
8174
8175
8175
8175
8175
8175
8176
8176
8176
8177
8177
8177
8178
8178
8179
8179
8179
8179
8180
8180
8180
8180
8181
8181
8181
8181
8181
8182
8182
8182
8183
8183
8184
8184
8185
8185
8185
8185
8186
8186
8186
8186
8186
8186
8186
8186
8186
8186
8186
8186
8185
8185
8185
8185
8184
8184
8184
8184
8183
8183
8183
8183
8182
8182
8182
8182
8182
8182
8182
8182
8181
8181
8181
8181
8181
8181
8180
8180
8180
8180
8180
8180
8180
8180
8180
8180
8180
8180
8180
8180
8180
8180
8181
8181
8181
8181
8181
8181
8181
8181
8181
8180
8180
8180
8180
8180
8180
8180
8180
8180
8180
8180
8180
8180
8180
8180
8180
8180
8180
8180
8180
8180
8180
8180
8180
8180
8180
8180
8180
8180
8180
8180
8180
8180
8180
8180
8180
8181
8181
8181
8181
8182
8182
8182
8182
8182
8182
8182
8182
8182
8182
8182
8182
8182
8182
8182
8182
8182
8182
8182
8182
8182
8182
8182
8182
8182
8182
8182
8182
8183
8183
8183
8183
8183
8183
8183
8183
8183
8183
8183
8183
8183
8183
8183
8183
8183
8183
8183
8183
8184
8184
8184
8184
8184
8184
8184
8184
8184
8184
8184
8184
8184
8184
8184
8184
8184
8184
8184
8184
8184
8184
8183
8183
8183
8183
8183
8183
8183
8183
8183
8183
8184
8184
8184
8184
8185
8185
8185
8185
8185
8185
8185
8185
8185
8185
8185
8185
8185
8185
8185
8185
8185
8185
8185
8185
8185
8185
8185
8185
8185
8185
8185
8185
8185
8185
8185
8185
8185
8185
8185
8185
8184
8184
8184
8185
8185
8185
8185
8185
8185
8185
8185
8185
8185
8186
8186
8186
8186
8186
8186
8186
8186
8186
8186
8186
8186
8186
8186
8186
8186
8185
8185
8185
8185
8185
8185
8185
8185
8186
8186
8186
8186
8186
8186
8186
8185
8185
8185
8185
8185
8185
8185
8185
8185
8186
8186
8186
8186
8187
8187
8188
8189
8190
8191
8192
8193
8194
8195
8196
8196
8197
8198
8198
8199
8200
8200
8201
8202
8203
8204
8204
8205
8205
8206
8206
8205
8205
8205
8204
8203
8203
8202
8202
8201
8200
8199
8198
8197
8195
8193
8191
8189
8188
8186
8184
8183
8182
8182
8181
8180
8180
8180
8179
8179
8179
8179
8179
8179
8179
8179
8179
8179
8179
8179
8179
8180
8180
8180
8179
8179
8178
8177
8176
8176
8176
8178
8182
8190
8203
8221
8244
8273
8307
8345
8386
8427
8466
8501
8528
8546
8552
8546
8528
8500
8463
8420
8374
8328
8286
8249
8217
8192
8174
8161
8153
8147
8145
8144
8145
8146
8147
8149
8150
8151
8151
8152
8152
8153
8153
8153
8153
8153
8153
8154
8154
8154
8155
8155
8156
8156
8156
8156
8156
8156
8156
8156
8156
8156
8157
8157
8157
8158
8158
8158
8158
8159
8159
8159
8160
8160
8160
8161
8161
8161
8162
8162
8162
8163
8163
8163
8164
8164
8164
8164
8165
8165
8165
8165
8165
8165
8166
8166
8166
8166
8167
8167
8168
8168
8168
8168
8168
8169
8169
8169
8169
8169
8170
8170
8170
8171
8172
8172
8173
8173
8174
8175
8175
8176
8176
8177
8177
8178
8178
8179
8180
8180
8181
8182
8183
8184
8185
8187
8188
8190
8191
8192
8194
8195
8196
8197
8197
8198
8199
8200
8200
8201
8202
8202
8203
8203
8204
8204
8205
8205
8206
8206
8206
8206
8207
8207
8206
8206
8206
8206
8206
8206
8206
8206
8206
8206
8206
8205
8205
8204
8204
8203
8203
8202
8201
8200
8200
8199
8198
8197
8196
8194
8193
8192
8190
8189
8188
8187
8186
8185
8184
8183
8182
8181
8180
8179
8178
8177
8177
8176
8176
8175
8175
8175
8175
8174
8174
8174
8174
8174
8174
8173
8173
8173
8173
8173
8173
8173
8173
8173
8173
8174
8174
8174
8174
8174
8175
8175
8175
8175
8175
8175
8175
8175
8176
8176
8176
8176
8177
8177
8177
8177
8177
8177
8177
8177
8178
8178
8178
8178
8179
8179
8179
8180
8180
8181
8181
8182
8182
8183
8183
8183
8183
8184
8184
8184
8184
8185
8185
8185
8185
8185
8185
8186
8186
8186
8186
8186
8186
8186
8186
8186
8186
8186
8186
8185
8185
8185
8185
8185
8185
8185
8184
8184
8184
8184
8183
8183
8183
8183
8183
8183
8183
8183
8183
8182
8182
8182
8182
8182
8182
8182
8182
8182
8182
8182
8181
8181
8181
8181
8181
8181
8181
8181
8181
8181
8181
8181
8181
8181
8181
8181
8181
8181
8181
8181
8181
8181
8181
8181
8181
8181
8181
8180
8180
8180
8180
8180
8180
8180
8180
8180
8180
8180
8180
8180
8180
8180
8180
8180
8180
8180
8180
8180
8180
8180
8180
8180
8181
8181
8181
8181
8181
8181
8181
8181
8181
8180
8180
8180
8180
8180
8180
8180
8181
8181
8181
8181
8181
8181
8181
8182
8182
8182
8182
8182
8182
8182
8182
8182
8182
8182
8182
8182
8182
8182
8182
8182
8182
8182
8181
8182
8182
8182
8182
8182
8182
8182
8182
8182
8182
8182
8182
8182
8183
8183
8183
8183
8183
8183
8183
8183
8183
8183
8183
8183
8183
8182
8183
8183
8183
8183
8183
8183
8183
8183
8184
8184
8184
8184
8184
8183
8183
8183
8184
8184
8184
8184
8184
8185
8185
8185
8185
8186
8186
8187
8188
8189
8189
8190
8192
8193
8193
8194
8195
8196
8196
8197
8198
8199
8200
8201
8201
8202
8203
8203
8204
8204
8204
8204
8203
8203
8202
8202
8201
8201
8201
8200
8200
8199
8198
8197
8195
8193
8191
8189
8187
8185
8183
8182
8181
8180
8179
8178
8178
8178
8178
8178
8177
8178
8178
8178
8178
8178
8178
8178
8178
8178
8178
8179
8179
8179
8179
8178
8178
8177
8177
8176
8177
8178
8181
8188
8197
8212
8231
8256
8286
8321
8358
8397
8435
8470
8500
8520
8530
8528
8514
8488
8454
8413
8367
8322
8280
8243
8211
8187
8169
8157
8149
8145
8143
8143
8144
8146
8148
8150
8151
8153
8154
8155
8156
8156
8157
8157
8157
8157
8157
8157
8158
8158
8158
8158
8159
8159
8159
8160
8160
8160
8160
8160
8160
8160
8161
8161
8161
8162
8162
8163
8163
8164
8164
8164
8164
8164
8164
8164
8164
8165
8165
8165
8165
8165
8166
8166
8166
8167
8167
8167
8167
8168
8168
8168
8168
8169
8169
8169
8169
8169
8170
8170
8170
8171
8171
8171
8172
8172
8172
8173
8173
8174
8174
8174
8175
8175
8176
8176
8177
8177
8178
8179
8179
8180
8181
8181
8182
8183
8184
8185
8186
8187
8188
8189
8190
8191
8192
8193
8194
8195
8196
8197
8199
8200
8201
8202
8204
8205
8206
8207
8208
8209
8210
8210
8211
8212
8212
8213
8213
8214
8214
8214
8215
8215
8215
8215
8215
8215
8215
8215
8215
8215
8214
8214
8214
8213
8213
8212
8211
8210
8209
8208
8207
8205
8204
8203
8201
8200
8199
8197
8195
8194
8192
8191
8189
8188
8186
8185
8183
8182
8181
8181
8180
8179
8178
8177
8177
8176
8175
8174
8174
8173
8173
8173
8172
8172
8172
8172
8172
8172
8172
8172
8172
8172
8172
8172
8172
8172
8172
8172
8172
8172
8172
8172
8172
8172
8172
8172
8172
8172
8173
8173
8173
8173
8174
8174
8174
8174
8175
8175
8175
8176
8176
8177
8177
8178
8178
8178
8178
8179
8179
8180
8180
8180
8181
8181
8182
8182
8182
8182
8183
8183
8183
8183
8184
8184
8184
8184
8184
8185
8185
8185
8186
8186
8186
8186
8186
8186
8186
8186
8186
8185
8185
8185
8185
8184
8184
8184
8184
8184
8184
8184
8183
8183
8183
8183
8183
8183
8183
8183
8183
8183
8183
8182
8182
8182
8182
8182
8182
8182
8181
8181
8181
8181
8181
8181
8181
8180
8180
8180
8180
8180
8180
8180
8180
8180
8180
8180
8180
8180
8180
8180
8181
8181
8181
8180
8180
8180
8180
8180
8180
8180
8180
8180
8180
8180
8180
8180
8180
8180
8180
8180
8180
8180
8180
8180
8180
8179
8179
8179
8179
8179
8179
8179
8179
8179
8179
8180
8180
8180
8180
8180
8180
8180
8180
8180
8179
8179
8179
8179
8179
8180
8180
8180
8180
8180
8180
8180
8180
8181
8181
8181
8181
8181
8181
8181
8181
8181
8181
8181
8181
8181
8181
8182
8182
8182
8182
8182
8182
8182
8182
8182
8182
8182
8182
8182
8183
8183
8183
8183
8183
8183
8183
8184
8184
8184
8184
8184
8184
8183
8183
8183
8183
8183
8183
8184
8184
8184
8184
8185
8185
8185
8185
8185
8185
8185
8185
8185
8185
8185
8184
8184
8184
8184
8184
8184
8184
8184
8184
8184
8184
8184
8184
8184
8184
8184
8184
8184
8185
8185
8185
8185
8185
8185
8185
8185
8185
8185
8185
8185
8185
8185
8185
8186
8187
8188
8189
8190
8191
8192
8193
8194
8195
8196
8196
8197
8197
8198
8199
8200
8200
8201
8202
8202
8203
8204
8204
8204
8204
8204
8204
8204
8203
8203
8203
8202
8202
8201
8200
8200
8199
8197
8196
8194
8192
8190
8188
8186
8185
8183
8182
8181
8181
8180
8180
8180
8180
8180
8180
8180
8180
8180
8180
8180
8179
8180
8180
8180
8180
8180
8180
8180
8180
8180
8179
8178
8177
8176
8175
8175
8175
8177
8182
8191
8204
8223
8248
8278
8313
8352
8393
8434
8472
8506
8531
8546
8549
8540
8519
8489
8449
8405
8360
8315
8274
8238
8209
8187
8170
8159
8151
8147
8145
8145
8146
8147
8148
8149
8150
8151
8152
8153
8153
8153
8153
8154
8154
8154
8154
8154
8154
8155
8155
8156
8156
8156
8156
8157
8157
8157
8158
8158
8158
8159
8159
8160
8160
8160
8160
8160
8160
8160
8160
8161
8161
8161
8161
8162
8162
8162
8162
8163
8163
8163
8163
8163
8163
8164
8164
8164
8164
8165
8165
8165
8166
8166
8167
8167
8167
8168
8168
8168
8169
8169
8170
8170
8171
8171
8171
8172
8172
8173
8173
8174
8174
8174
8175
8175
8175
8176
8177
8177
8178
8178
8179
8180
8180
8181
8181
8182
8182
8183
8184
8185
8185
8187
8188
8189
8190
8191
8192
8193
8195
8196
8197
8198
8199
8200
8201
8202
8203
8203
8204
8205
8206
8206
8207
8207
8208
8208
8209
8209
8210
8210
8210
8211
8211
8211
8211
8211
8211
8211
8210
8210
8210
8209
8209
8208
8208
8207
8206
8205
8204
8203
8202
8201
8200
8199
8198
8196
8195
8194
8193
8191
8190
8189
8188
8186
8185
8184
8183
8182
8181
8180
8179
8178
8178
8177
8177
8176
8176
8175
8175
8175
8175
8175
8175
8174
8174
8174
8174
8174
8174
8174
8174
8174
8174
8174
8174
8174
8174
8174
8173
8173
8173
8173
8173
8174
8174
8174
8174
8174
8175
8175
8175
8175
8175
8175
8175
8175
8175
8175
8175
8176
8176
8176
8176
8176
8177
8177
8178
8178
8178
8178
8179
8179
8179
8180
8180
8181
8181
8181
8181
8182
8182
8182
8182
8182
8183
8183
8183
8184
8184
8184
8184
8184
8184
8184
8184
8185
8185
8185
8185
8185
8185
8185
8185
8185
8185
8185
8185
8185
8184
8184
8184
8184
8184
8184
8184
8184
8184
8184
8183
8183
8183
8183
8183
8183
8183
8182
8182
8182
8182
8182
8182
8182
8182
8182
8182
8182
8182
8182
8181
8181
8181
8181
8181
8181
8181
8180
8180
8180
8180
8180
8180
8180
8180
8180
8180
8180
8180
8181
8181
8181
8181
8181
8181
8181
8181
8181
8181
8181
8181
8181
8181
8181
8181
8181
8181
8181
8181
8181
8181
8181
8181
8181
8181
8181
8181
8182
8182
8182
8182
8182
8182
8182
8182
8182
8182
8182
8182
8182
8182
8182
8182
8182
8182
8182
8182
8182
8182
8182
8182
8182
8182
8182
8182
8182
8182
8181
8182
8182
8182
8182
8182
8182
8182
8183
8183
8183
8183
8184
8184
8184
8184
8184
8184
8184
8184
8184
8184
8184
8184
8184
8184
8184
8184
8184
8185
8185
8185
8184
8184
8184
8184
8184
8184
8183
8183
8183
8183
8184
8184
8184
8184
8184
8184
8184
8184
8184
8184
8184
8184
8184
8184
8184
8184
8184
8184
8184
8184
8184
8184
8184
8184
8184
8185
8185
8185
8185
8185
8185
8185
8185
8185
8185
8185
8185
8185
8185
8185
8185
8185
8185
8185
8185
8186
8186
8186
8187
8188
8189
8190
8191
8192
8193
8194
8195
8195
8196
8197
8197
8198
8199
8200
8200
8201
8202
8203
8204
8204
8205
8205
8205
8205
8205
8204
8204
8203
8202
8202
8201
8201
8200
8199
8198
8197
8195
8194
8192
8190
8188
8186
8184
8183
8182
8181
8180
8179
8179
8179
8179
8178
8178
8178
8178
8178
8179
8179
8179
8179
8179
8179
8179
8179
8179
8179
8178
8178
8177
8177
8176
8175
8174
8175
8176
8181
8188
8200
8218
8241
8270
8304
8343
8384
8425
8465
8500
8528
8546
8552
8546
8527
8499
8461
8417
8371
8326
8283
8246
8214
8190
8172
8160
8151
8146
8144
8144
8144
8146
8147
8148
8149
8150
8151
8151
8151
8151
8152
8152
8152
8153
8153
8153
8154
8154
8154
8154
8155
8155
8155
8155
8155
8156
8156
8156
8156
8156
8156
8156
8156
8157
8157
8157
8157
8157
8157
8157
8157
8158
8158
8158
8159
8159
8160
8160
8160
8161
8161
8161
8162
8162
8162
8163
8163
8163
8163
8164
8164
8164
8164
8165
8165
8165
8165
8165
8166
8166
8166
8167
8167
8168
8168
8168
8168
8169
8169
8169
8170
8170
8171
8171
8172
8172
8173
8174
8174
8175
8175
8176
8177
8178
8178
8179
8180
8181
8182
8182
8183
8184
8185
8186
8187
8188
8189
8190
8191
8192
8193
8194
8196
8197
8198
8199
8200
8200
8201
8202
8202
8203
8203
8204
8205
8205
8206
8206
8207
8207
8207
8207
8207
8207
8207
8207
8207
8207
8207
8206
8206
8206
8206
8205
8205
8204
8204
8203
8202
8201
8200
8200
8198
8197
8196
8195
8193
8192
8191
8189
8188
8186
8185
8184
8183
8182
8181
8180
8179
8178
8177
8177
8176
8176
8175
8175
8174
8174
8173
8173
8173
8172
8172
8172
8172
8172
8172
8172
8172
8172
8172
8172
8172
8172
8172
8172
8172
8172
8172
8172
8171
8171
8171
8171
8171
8171
8171
8171
8171
8171
8172
8172
8172
8172
8173
8173
8173
8174
8174
8175
8175
8175
8175
8175
8175
8175
8176
8176
8176
8176
8177
8177
8178
8178
8179
8179
8179
8180
8180
8180
8181
8181
8181
8182
8182
8183
8183
8184
8184
8184
8184
8184
8184
8184
8184
8184
8184
8184
8185
8185
8185
8185
8185
8185
8185
8185
8184
8184
8184
8184
8184
8183
8183
8183
8183
8183
8183
8182
8182
8182
8182
8182
8182
8182
8182
8181
8181
8181
8181
8181
8180
8180
8180
8180
8180
8180
8180
8180
8180
8180
8180
8180
8180
8180
8179
8179
8179
8179
8179
8179
8179
8179
8179
8179
8179
8179
8179
8179
8179
8179
8179
8179
8179
8179
8179
8179
8179
8179
8179
8179
8179
8179
8179
8179
8179
8179
8179
8179
8179
8179
8179
8179
8179
8179
8180
8180
8180
8181
8181
8181
8181
8181
8181
8181
8181
8181
8181
8181
8181
8181
8181
8181
8181
8181
8181
8181
8181
8181
8181
8181
8181
8181
8181
8181
8181
8181
8181
8181
8181
8182
8182
8182
8182
8182
8182
8182
8182
8183
8183
8183
8183
8183
8183
8183
8183
8183
8183
8183
8184
8184
8184
8184
8184
8184
8183
8183
8183
8183
8183
8183
8184
8184
8184
8184
8184
8184
8184
8184
8185
8185
8186
8186
8187
8188
8189
8190
8191
8192
8193
8194
8195
8196
8196
8197
8198
8199
8200
8201
8202
8203
8203
8204
8204
8205
8205
8205
8204
8204
8204
8203
8203
8202
8202
8201
8200
8199
8198
8197
8195
8193
8192
8189
8187
8186
8184
8182
8181
8180
8180
8179
8179
8178
8178
8178
8178
8178
8177
8177
8177
8177
8177
8177
8177
8178
8178
8178
8178
8178
8178
8178
8177
8177
8176
8176
8176
8177
8180
8185
8193
8205
8222
8244
8272
8304
8339
8377
8416
8452
8484
8510
8526
8530
8521
8501
8472
8434
8391
8345
8301
8261
8226
8197
8176
8161
8151
8145
8141
8140
8141
8142
8144
8146
8148
8150
8151
8153
8153
8154
8155
8155
8155
8156
8156
8156
8157
8157
8157
8157
8158
8158
8158
8158
8158
8159
8159
8159
8159
8159
8160
8160
8160
8161
8161
8162
8162
8162
8162
8162
8163
8163
8163
8163
8163
8164
8164
8164
8165
8165
8165
8165
8165
8165
8165
8166
8166
8166
8166
8167
8167
8167
8168
8168
8169
8169
8169
8170
8170
8171
8171
8171
8172
8172
8172
8173
8173
8173
8174
8174
8175
8175
8176
8176
8177
8177
8178
8179
8179
8180
8180
8181
8182
8183
8183
8184
8185
8186
8187
8188
8189
8190
8192
8193
8194
8196
8197
8198
8199
8200
8201
8202
8203
8204
8206
8206
8207
8208
8209
8210
8210
8211
8212
8212
8213
8213
8214
8214
8214
8215
8215
8215
8215
8215
8215
8215
8214
8214
8214
8214
8213
8213
8212
8211
8211
8210
8209
8208
8207
8206
8204
8202
8201
8199
8197
8196
8194
8192
8190
8189
8187
8186
8185
8183
8183
8182
8181
8180
8179
8178
8177
8176
8175
8175
8174
8173
8173
8172
8172
8172
8171
8171
8171
8171
8171
8171
8171
8171
8171
8171
8171
8171
8171
8171
8171
8171
8170
8170
8170
8170
8170
8170
8170
8171
8171
8171
8172
8172
8172
8172
8172
8173
8173
8173
8174
8174
8174
8175
8175
8175
8176
8176
8176
8176
8177
8177
8177
8178
8178
8178
8178
8179
8179
8180
8180
8181
8181
8182
8182
8183
8183
8183
8184
8184
8184
8185
8185
8185
8185
8185
8185
8185
8185
8185
8185
8185
8186
8186
8186
8186
8186
8185
8185
8185
8185
8185
8185
8185
8185
8184
8184
8184
8183
8183
8183
8183
8183
8183
8183
8182
8182
8182
8182
8182
8182
8182
8182
8182
8182
8181
8181
8181
8181
8181
8181
8182
8182
8182
8182
8182
8182
8181
8181
8181
8181
8181
8181
8181
8181
8181
8181
8181
8181
8181
8181
8181
8181
8181
8181
8181
8181
8181
8181
8181
8181
8181
8181
8181
8181
8181
8181
8181
8181
8181
8182
8182
8182
8182
8182
8182
8182
8182
8182
8182
8182
8182
8181
8181
8181
8181
8181
8181
8181
8181
8181
8181
8181
8181
8182
8182
8182
8182
8183
8183
8183
8183
8183
8183
8182
8182
8182
8182
8182
8182
8182
8182
8182
8183
8183
8183
8183
8183
8183
8183
8183
8183
8183
8184
8184
8183
8183
8183
8183
8183
8183
8183
8183
8184
8184
8184
8184
8184
8184
8184
8184
8185
8185
8185
8185
8186
8187
8188
8189
8190
8192
8193
8194
8194
8195
8196
8196
8197
8198
8199
8200
8201
8202
8202
8203
8204
8204
8205
8205
8205
8205
8205
8205
8204
8204
8203
8203
8203
8203
8203
8202
8202
8201
8200
8198
8196
8194
8192
8190
8188
8186
8185
8183
8182
8181
8181
8180
8180
8180
8180
8180
8180
8180
8180
8180
8180
8180
8180
8179
8179
8180
8180
8180
8180
8180
8180
8179
8179
8178
8178
8178
8178
8180
8183
8190
8201
8215
8235
8260
8290
8324
8361
8400
8438
8474
8503
8524
8535
8534
8521
8496
8463
8423
8379
8334
8291
8254
8221
8196
8177
8163
8155
8149
8147
8146
8147
8149
8150
8152
8153
8155
8156
8156
8157
8157
8157
8158
8158
8158
8158
8158
8159
8159
8159
8160
8160
8160
8161
8161
8161
8161
8161
8161
8161
8162
8162
8162
8162
8163
8163
8163
8163
8164
8164
8164
8164
8164
8164
8165
8165
8165
8165
8166
8166
8166
8167
8167
8168
8168
8168
8168
8169
8169
8169
8169
8170
8170
8170
8171
8171
8171
8171
8171
8172
8172
8172
8173
8173
8173
8174
8174
8174
8174
8175
8175
8175
8176
8176
8177
8177
8178
8178
8179
8179
8180
8181
8181
8182
8183
8184
8184
8185
8186
8187
8189
8190
8191
8192
8194
8195
8196
8197
8199
8200
8201
8202
8203
8204
8206
8207
8208
8209
8210
8211
8212
8213
8214
8214
8215
8216
8216
8217
8217
8217
8218
8218
8218
8218
8218
8219
8219
8218
8218
8218
8217
8217
8216
8215
8214
8213
8212
8211
8210
8208
8207
8206
8204
8203
8201
8200
8199
8197
8195
8194
8192
8190
8189
8187
8186
8184
8183
8182
8181
8180
8179
8178
8177
8177
8176
8175
8175
8174
8174
8174
8173
8173
8173
8173
8172
8172
8172
8172
8172
8171
8171
8171
8171
8171
8171
8171
8171
8171
8171
8172
8172
8172
8172
8172
8172
8172
8172
8172
8172
8172
8173
8173
8173
8173
8173
8174
8174
8174
8174
8174
8174
8175
8175
8175
8175
8176
8176
8176
8176
8177
8177
8177
8178
8178
8178
8179
8179
8180
8181
8181
8182
8182
8182
8183
8183
8184
8184
8184
8185
8185
8185
8185
8185
8185
8185
8185
8185
8185
8185
8185
8185
8185
8185
8185
8185
8185
8185
8184
8184
8184
8184
8184
8183
8183
8183
8183
8182
8182
8182
8182
8182
8182
8182
8182
8182
8182
8182
8182
8182
8182
8182
8182
8182
8182
8182
8182
8182
8181
8181
8181
8181
8181
8181
8181
8181
8181
8181
8181
8181
8181
8181
8181
8181
8181
8181
8181
8181
8181
8181
8181
8181
8181
8181
8181
8181
8181
8181
8181
8181
8181
8181
8181
8181
8181
8181
8181
8181
8181
8181
8181
8181
8181
8181
8182
8182
8182
8182
8182
8182
8182
8182
8182
8182
8182
8182
8183
8183
8183
8183
8183
8183
8183
8183
8183
8183
8183
8183
8183
8183
8183
8183
8183
8183
8183
8183
8183
8183
8183
8183
8183
8183
8183
8183
8183
8183
8183
8183
8184
8184
8184
8184
8184
8184
8184
8184
8184
8184
8184
8185
8185
8185
8185
8185
8184
8184
8184
8184
8184
8184
8184
8184
8184
8184
8184
8184
8184
8185
8185
8185
8185
8185
8185
8185
8185
8185
8184
8184
8184
8184
8185
8185
8185
8185
8185
8185
8185
8185
8185
8185
8185
8185
8185
8185
8184
8184
8184
8184
8184
8184
8184
8185
8185
8185
8185
8185
8185
8186
8186
8186
8186
8186
8186
8186
8186
8186
8186
8186
8186
8186
8186
8186
8186
8185
8185
8185
8185
8185
8184
8184
8184
8185
8185
8185
8185
8185
8186
8186
8186
8186
8186
8186
8186
8186
8186
8186
8186
8186
8186
8187
8187
8187
8187
8187
8187
8187
8187
8187
8187
8187
8187
8187
8187
8187
8186
8186
8187
8187
8186
8186
8186
8186
8186
8186
8186
8186
8186
8186
8186
8186
8186
8186
8186
8187
8187
8188
8189
8189
8190
8192
8193
8194
8194
8195
8196
8196
8197
8198
8198
8199
8200
8201
8202
8203
8204
8205
8206
8206
8207
8207
8206
8206
8206
8205
8205
8204
8203
8203
8202
8201
8200
8199
8198
8196
8195
8193
8191
8189
8187
8185
8184
8182
8182
8181
8180
8180
8180
8180
8180
8180
8180
8180
8180
8180
8180
8180
8180
8180
8180
8180
8180
8180
8180
8180
8179
8178
8178
8177
8176
8176
8178
8182
8190
8203
8221
8244
8274
8308
8346
8387
8428
8467
8502
8528
8545
8550
8543
8525
8496
8458
8415
8370
8325
8283
8246
8215
8191
8173
8160
8152
8147
8145
8145
8146
8147
8148
8149
8150
8151
8152
8153
8153
8153
8153
8153
8154
8154
8154
8154
8154
8154
8155
8155
8155
8155
8156
8156
8156
8156
8157
8157
8157
8157
8157
8157
8157
8158
8158
8159
8159
8159
8159
8160
8160
8160
8160
8160
8161
8161
8161
8162
8162
8163
8163
8163
8163
8164
8164
8164
8164
8164
8164
8165
8165
8165
8165
8166
8166
8166
8167
8167
8168
8168
8168
8168
8169
8169
8169
8169
8170
8170
8171
8171
8172
8172
8173
8173
8174
8174
8174
8175
8176
8176
8177
8178
8179
8180
8180
8181
8182
8182
8183
8183
8184
8185
8186
8187
8188
8189
8190
8192
8193
8194
8195
8196
8197
8198
8199
8200
8201
8202
8203
8204
8204
8205
8205
8206
8206
8207
8207
8207
8207
8208
8208
8208
8208
8208
8208
8208
8208
8208
8208
8208
8208
8207
8207
8207
8206
8206
8205
8205
8204
8204
8203
8202
8201
8200
8199
8198
8196
8195
8194
8192
8191
8190
8188
8187
8186
8185
8184
8184
8183
8182
8181
8180
8180
8179
8178
8178
8177
8177
8176
8176
8176
8176
8175
8175
8175
8175
8175
8175
8175
8175
8175
8175
8175
8175
8174
8174
8174
8174
8174
8174
8174
8174
8174
8174
8174
8174
8174
8174
8174
8174
8175
8175
8175
8175
8176
8176
8176
8176
8176
8176
8177
8177
8177
8177
8177
8178
8178
8178
8179
8179
8179
8179
8179
8180
8180
8180
8180
8180
8181
8181
8182
8182
8183
8183
8184
8184
8185
8185
8185
8186
8186
8186
8186
8186
8186
8186
8186
8186
8185
8185
8185
8185
8185
8185
8185
8185
8185
8185
8184
8184
8184
8184
8183
8183
8183
8182
8182
8182
8182
8181
8181
8181
8181
8181
8181
8181
8181
8181
8181
8181
8181
8181
8180
8180
8180
8180
8180
8180
8180
8180
8180
8180
8180
8180
8180
8180
8180
8180
8180
8179
8179
8179
8179
8179
8179
8179
8180
8180
8180
8180
8181
8181
8181
8180
8180
8180
8179
8179
8179
8179
8179
8179
8179
8179
8179
8179
8179
8179
8180
8180
8180
8180
8180
8180
8180
8180
8180
8180
8180
8180
8180
8180
8180
8180
8180
8180
8180
8180
8180
8180
8180
8180
8180
8180
8180
8180
8180
8181
8181
8181
8181
8181
8181
8181
8181
8181
8181
8181
8181
8181
8181
8181
8181
8181
8181
8181
8182
8182
8182
8181
8181
8181
8181
8181
8181
8181
8181
8181
8181
8181
8181
8181
8181
8181
8181
8181
8182
8182
8182
8182
8182
8183
8183
8183
8183
8183
8183
8183
8183
8184
8183
8183
8183
8183
8183
8183
8183
8183
8183
8183
8183
8184
8184
8184
8184
8184
8184
8184
8184
8184
8185
8185
8185
8185
8185
8185
8185
8185
8185
8185
8185
8185
8185
8184
8184
8184
8185
8185
8185
8185
8185
8186
8186
8186
8186
8186
8186
8186
8186
8187
8187
8188
8189
8190
8191
8192
8193
8194
8196
8196
8197
8198
8199
8200
8201
8202
8203
8203
8204
8205
8205
8205
8206
8206
8206
8205
8205
8204
8204
8203
8203
8203
8202
8201
8200
8199
8198
8196
8195
8193
8191
8189
8187
8185
8183
8182
8181
8180
8180
8179
8179
8179
8179
8179
8179
8179
8179
8179
8179
8179
8179
8179
8179
8179
8179
8179
8179
8179
8179
8178
8177
8177
8177
8178
8181
8187
8196
8210
8229
8252
8281
8314
8350
8388
8425
8460
8490
8512
8524
8525
8514
8492
8461
8422
8379
8334
8292
8253
8220
8193
8174
8160
8151
8145
8142
8142
8143
8144
8146
8148
8150
8151
8153
8154
8154
8155
8156
8156
8157
8157
8157
8158
8158
8158
8158
8159
8159
8159
8159
8160
8160
8160
8160
8161
8161
8161
8162
8162
8162
8163
8163
8163
8163
8163
8163
8164
8164
8164
8164
8165
8165
8165
8166
8166
8167
8167
8167
8167
8168
8168
8168
8168
8169
8169
8169
8169
8169
8170
8170
8170
8170
8171
8171
8171
8171
8172
8172
8172
8172
8173
8173
8174
8174
8174
8175
8175
8176
8177
8177
8178
8179
8179
8180
8181
8181
8182
8183
8183
8184
8185
8185
8186
8187
8188
8189
8190
8191
8192
8193
8194
8195
8196
8197
8198
8199
8200
8200
8201
8202
8203
8204
8205
8206
8207
8207
8208
8209
8209
8210
8210
8211
8211
8212
8212
8213
8213
8213
8213
8213
8213
8213
8213
8213
8212
8212
8212
8211
8211
8210
8209
8209
8208
8207
8206
8205
8205
8204
8203
8202
8200
8199
8198
8196
8195
8193
8192
8190
8189
8188
8186
8185
8184
8182
8181
8180
8179
8178
8177
8176
8176
8175
8175
8174
8174
8173
8173
8173
8172
8172
8172
8172
8172
8172
8172
8172
8172
8171
8171
8171
8171
8171
8171
8171
8171
8171
8171
8171
8172
8172
8172
8172
8172
8172
8173
8173
8173
8174
8174
8174
8175
8175
8175
8176
8176
8176
8177
8177
8178
8178
8178
8178
8179
8179
8179
8180
8180
8180
8181
8181
8182
8182
8182
8183
8183
8183
8183
8184
8184
8184
8185
8185
8185
8185
8186
8186
8186
8186
8186
8186
8186
8186
8186
8186
8186
8185
8185
8185
8185
8184
8184
8184
8184
8184
8184
8184
8183
8183
8183
8183
8183
8183
8182
8182
8182
8182
8182
8182
8182
8182
8182
8182
8182
8182
8181
8181
8181
8181
8181
8181
8180
8180
8180
8180
8180
8180
8180
8180
8180
8181
8181
8181
8181
8180
8180
8180
8180
8180
8180
8179
8179
8179
8180
8180
8180
8180
8180
8180
8180
8180
8180
8180
8180
8180
8180
8180
8180
8179
8179
8179
8179
8179
8179
8179
8179
8179
8179
8179
8179
8178
8178
8178
8178
8178
8179
8179
8179
8179
8180
8180
8180
8180
8180
8181
8181
8181
8181
8181
8181
8181
8181
8181
8181
8181
8181
8181
8181
8181
8181
8181
8181
8181
8182
8182
8182
8183
8183
8183
8183
8183
8183
8182
8182
8182
8182
8182
8182
8182
8182
8182
8182
8182
8182
8183
8183
8183
8183
8183
8183
8183
8183
8183
8184
8184
8184
8184
8184
8184
8184
8184
8184
8184
8184
8184
8184
8184
8185
8185
8185
8186
8186
8187
8187
8188
8189
8190
8192
8192
8193
8194
8195
8195
8196
8197
8197
8198
8199
8200
8201
8201
8202
8203
8204
8204
8204
8205
8205
8205
8204
8204
8204
8203
8203
8203
8202
8202
8201
8200
8199
8198
8196
8194
8192
8190
8188
8186
8184
8183
8182
8181
8181
8180
8180
8180
8179
8179
8179
8179
8179
8179
8179
8179
8179
8179
8179
8179
8179
8180
8180
8179
8179
8179
8178
8177
8177
8176
8176
8177
8180
8186
8195
8210
8229
8254
8285
8320
8359
8400
8440
8477
8509
8532
8545
8546
8535
8512
8479
8440
8395
8350
8306
8266
8232
8204
8183
8168
8158
8151
8148
8146
8147
8148
8149
8150
8151
8152
8153
8154
8154
8154
8154
8155
8155
8155
8155
8155
8156
8156
8156
8156
8156
8157
8157
8157
8158
8158
8158
8158
8159
8159
8159
8159
8159
8160
8160
8160
8161
8161
8161
8162
8162
8162
8163
8163
8163
8163
8163
8164
8164
8164
8164
8164
8165
8165
8166
8166
8166
8167
8167
8167
8167
8167
8167
8167
8168
8168
8168
8169
8169
8170
8170
8171
8171
8172
8172
8172
8173
8173
8173
8173
8174
8174
8175
8175
8176
8176
8177
8178
8178
8179
8180
8181
8181
8182
8183
8184
8184
8185
8186
8187
8187
8188
8189
8190
8192
8193
8194
8196
8197
8198
8199
8200
8201
8202
8203
8204
8205
8206
8207
8208
8209
8209
8210
8211
8211
8212
8212
8213
8213
8214
8214
8214
8214
8214
8214
8214
8214
8214
8214
8214
8213
8213
8213
8212
8211
8210
8209
8208
8207
8206
8205
8204
8203
8201
8200
8199
8198
8196
8195
8193
8192
8191
8189
8188
8187
8185
8184
8183
8182
8181
8180
8179
8179
8178
8178
8177
8177
8177
8177
8176
8176
8176
8176
8176
8175
8175
8175
8175
8175
8175
8175
8175
8175
8175
8175
8175
8175
8175
8174
8174
8174
8174
8174
8174
8174
8174
8174
8174
8174
8174
8174
8175
8175
8175
8176
8176
8176
8176
8176
8176
8176
8176
8176
8176
8177
8177
8177
8178
8178
8179
8179
8180
8180
8181
8181
8182
8182
8182
8183
8183
8183
8183
8184
8184
8184
8184
8185
8185
8185
8185
8186
8186
8186
8186
8186
8186
8186
8186
8186
8186
8186
8186
8186
8186
8186
8186
8186
8186
8186
8186
8186
8186
8185
8185
8185
8185
8185
8184
8184
8184
8184
8184
8184
8184
8183
8183
8183
8183
8183
8183
8183
8183
8183
8183
8183
8183
8183
8183
8183
8183
8183
8183
8183
8183
8183
8183
8183
8183
8183
8183
8183
8183
8183
8183
8183
8183
8183
8183
8183
8183
8183
8182
8182
8182
8182
8183
8183
8183
8183
8183
8183
8183
8183
8183
8183
8183
8183
8182
8182
8182
8182
8183
8183
8183
8183
8183
8183
8183
8183
8183
8183
8183
8183
8183
8183
8183
8183
8183
8183
8183
8183
8183
8183
8183
8183
8183
8183
8184
8184
8184
8184
8184
8184
8184
8184
8184
8184
8184
8184
8184
8184
8184
8184
8184
8184
8184
8184
8184
8184
8184
8185
8185
8185
8185
8185
8185
8185
8185
8185
8185
8185
8185
8185
8185
8185
8185
8185
8185
8185
8185
8185
8185
8185
8185
8185
8185
8185
8185
8185
8185
8185
8185
8185
8185
8185
8185
8185
8185
8185
8185
8185
8185
8185
8185
8185
8185
8185
8185
8185
8185
8185
8185
8185
8185
8185
8184
8184
8184
8185
8185
8185
8185
8186
8186
8186
8186
8186
8186
8186
8186
8186
8186
8186
8186
8186
8186
8186
8186
8186
8186
8186
8186
8186
8186
8186
8186
8186
8186
8186
8186
8186
8186
8186
8186
8186
8186
8186
8186
8186
8186
8186
8186
8186
8186
8186
8186
8185
8185
8185
8185
8185
8185
8185
8186
8186
8186
8187
8187
8187
8187
8187
8187
8188
8188
8189
8190
8190
8192
8192
8193
8194
8195
8196
8197
8197
8198
8199
8200
8201
8202
8203
8204
8204
8205
8206
8206
8205
8205
8205
8204
8204
8203
8203
8203
8202
8201
8200
8200
8198
8197
8195
8194
8192
8190
8188
8186
8184
8183
8182
8181
8180
8179
8179
8179
8178
8178
8178
8178
8178
8178
8178
8178
8178
8178
8178
8178
8178
8178
8178
8178
8178
8177
8177
8176
8175
8175
8175
8177
8182
8190
8203
8221
8245
8274
8308
8346
8387
8428
8466
8501
8527
8544
8550
8543
8524
8496
8459
8416
8370
8324
8283
8245
8214
8189
8171
8159
8151
8146
8144
8143
8144
8145
8146
8147
8148
8149
8150
8150
8151
8151
8151
8151
8152
8152
8152
8152
8153
8153
8153
8154
8154
8155
8155
8155
8156
8156
8156
8156
8156
8156
8157
8157
8157
8158
8158
8159
8159
8159
8159
8159
8159
8159
8159
8160
8160
8160
8161
8161
8161
8162
8162
8162
8162
8162
8162
8163
8163
8163
8163
8164
8164
8164
8165
8165
8165
8165
8166
8166
8166
8166
8166
8167
8167
8167
8168
8168
8168
8169
8169
8169
8170
8170
8170
8171
8171
8172
8172
8173
8174
8174
8175
8175
8176
8177
8178
8178
8179
8180
8181
8182
8182
8183
8184
8185
8186
8187
8189
8190
8191
8192
8193
8194
8195
8196
8197
8198
8199
8199
8200
8201
8201
8202
8203
8203
8204
8204
8205
8205
8206
8206
8206
8207
8207
8207
8207
8206
8206
8206
8206
8205
8205
8205
8204
8204
8204
8203
8203
8202
8202
8201
8200
8200
8199
8198
8197
8196
8194
8193
8192
8190
8189
8187
8186
8184
8183
8182
8181
8180
8179
8178
8177
8177
8176
8176
8176
8175
8175
8175
8174
8174
8173
8173
8173
8173
8173
8173
8173
8173
8173
8173
8173
8173
8173
8173
8173
8173
8173
8173
8173
8173
8173
8173
8174
8174
8174
8174
8175
8175
8175
8175
8175
8175
8176
8176
8176
8176
8176
8176
8176
8176
8176
8175
8175
8176
8176
8176
8176
8177
8178
8178
8179
8179
8180
8180
8181
8181
8181
8182
8182
8182
8182
8182
8183
8183
8183
8184
8184
8185
8185
8185
8185
8186
8186
8186
8186
8186
8186
8186
8186
8185
8185
8185
8185
8185
8185
8184
8184
8184
8183
8183
8183
8182
8182
8182
8182
8182
8182
8182
8182
8182
8182
8182
8182
8182
8182
8182
8181
8181
8181
8181
8181
8181
8180
8180
8180
8180
8180
8180
8180
8180
8180
8180
8180
8180
8180
8180
8180
8180
8180
8180
8180
8180
8180
8179
8179
8179
8179
8179
8179
8179
8179
8179
8179
8178
8179
8179
8179
8179
8179
8179
8180
8180
8180
8180
8180
8180
8180
8180
8180
8180
8179
8179
8179
8179
8179
8179
8179
8180
8180
8180
8180
8180
8181
8181
8181
8181
8181
8181
8181
8181
8182
8182
8182
8182
8182
8182
8182
8182
8182
8181
8181
8181
8181
8181
8181
8181
8181
8181
8181
8182
8182
8182
8182
8182
8182
8182
8182
8182
8182
8182
8182
8183
8183
8183
8183
8183
8184
8184
8184
8184
8183
8183
8183
8183
8184
8184
8184
8184
8184
8184
8184
8183
8183
8183
8183
8183
8183
8183
8183
8183
8184
8185
8186
8186
8188
8189
8190
8191
8192
8193
8194
8194
8195
8196
8196
8197
8197
8198
8199
8199
8200
8201
8202
8203
8203
8204
8204
8204
8204
8203
8203
8203
8202
8202
8202
8201
8201
8200
8199
8199
8197
8195
8194
8192
8190
8188
8186
8184
8183
8182
8181
8180
8179
8179
8178
8178
8178
8178
8178
8178
8178
8178
8178
8178
8178
8178
8179
8179
8179
8179
8179
8179
8179
8178
8178
8177
8177
8178
8179
8183
8189
8199
8214
8234
8259
8289
8323
8360
8398
8435
8469
8497
8517
8527
8524
8510
8485
8451
8411
8367
8322
8281
8244
8213
8188
8171
8158
8150
8145
8143
8142
8143
8145
8147
8149
8150
8152
8153
8154
8155
8156
8157
8157
8157
8158
8158
8158
8159
8159
8159
8159
8160
8160
8160
8161
8161
8161
8162
8162
8162
8162
8163
8163
8163
8163
8163
8163
8163
8164
8164
8164
8164
8165
8165
8165
8165
8166
8166
8166
8166
8166
8167
8167
8167
8167
8167
8167
8168
8168
8168
8168
8168
8169
8169
8169
8170
8170
8170
8171
8171
8171
8171
8172
8172
8172
8173
8173
8174
8174
8174
8175
8175
8175
8176
8176
8177
8178
8178
8179
8180
8180
8181
8181
8182
8183
8183
8184
8185
8185
8186
8187
8188
8190
8191
8192
8193
8195
8196
8197
8198
8200
8201
8202
8203
8204
8205
8206
8207
8208
8209
8210
8210
8211
8211
8212
8213
8213
8214
8214
8215
8215
8215
8215
8215
8214
8214
8214
8214
8213
8213
8213
8213
8212
8212
8211
8210
8209
8208
8207
8206
8205
8203
8202
8200
8199
8197
8196
8194
8193
8191
8189
8188
8186
8185
8183
8182
8181
8180
8179
8178
8177
8176
8176
8175
8175
8174
8174
8173
8173
8172
8172
8172
8172
8171
8171
8171
8171
8171
8171
8170
8170
8170
8170
8170
8170
8169
8169
8169
8169
8169
8169
8170
8170
8170
8170
8170
8170
8171
8171
8171
8172
8172
8173
8173
8173
8174
8174
8174
8174
8174
8174
8174
8175
8175
8175
8176
8176
8177
8177
8178
8179
8179
8180
8180
8180
8181
8181
8181
8182
8182
8182
8183
8183
8183
8184
8184
8185
8185
8185
8185
8185
8185
8185
8185
8185
8185
8185
8185
8185
8185
8185
8185
8184
8184
8184
8184
8184
8184
8183
8183
8183
8183
8183
8183
8183
8183
8183
8183
8183
8183
8183
8183
8183
8182
8182
8182
8182
8181
8181
8181
8181
8181
8180
8180
8180
8180
8180
8180
8180
8180
8180
8180
8180
8180
8180
8180
8180
8180
8180
8180
8180
8180
8180
8180
8180
8179
8179
8179
8179
8179
8179
8179
8179
8179
8179
8179
8179
8180
8180
8180
8180
8180
8180
8180
8180
8180
8180
8180
8180
8180
8180
8181
8181
8181
8181
8181
8181
8181
8181
8181
8181
8181
8181
8181
8181
8182
8182
8182
8182
8182
8183
8183
8183
8183
8183
8183
8183
8183
8183
8183
8183
8183
8183
8183
8183
8183
8183
8183
8183
8183
8183
8183
8183
8183
8183
8184
8184
8184
8184
8184
8184
8185
8185
8185
8185
8185
8185
8185
8185
8185
8185
8185
8185
8185
8185
8186
8186
8186
8187
8188
8188
8190
8191
8192
8193
8193
8194
8195
8195
8196
8196
8197
8198
8199
8200
8201
8202
8203
8203
8204
8204
8205
8205
8205
8204
8204
8204
8203
8203
8202
8202
8201
8201
8200
8199
8198
8196
8194
8193
8190
8189
8187
8185
8183
8182
8181
8180
8179
8179
8179
8179
8179
8179
8179
8179
8179
8179
8179
8179
8179
8179
8179
8179
8179
8179
8179
8179
8178
8178
8177
8176
8175
8175
8175
8176
8180
8186
8195
8209
8228
8252
8281
8314
8352
8390
8429
8465
8496
8520
8532
8533
8522
8500
8467
8427
8383
8338
8294
8255
8222
8195
8175
8161
8152
8146
8144
8143
8144
8145
8147
8149
8150
8151
8152
8153
8153
8154
8154
8154
8154
8154
8155
8155
8155
8156
8156
8156
8156
8157
8157
8157
8158
8158
8158
8158
8158
8159
8159
8159
8160
8160
8160
8161
8161
8161
8161
8162
8162
8162
8162
8162
8162
8162
8163
8163
8163
8163
8163
8164
8164
8164
8165
8165
8166
8166
8166
8167
8167
8167
8168
8168
8168
8169
8169
8169
8170
8170
8171
8171
8171
8172
8172
8173
8173
8174
8174
8174
8174
8175
8175
8176
8176
8177
8178
8178
8179
8180
8181
8181
8182
8183
8183
8184
8185
8186
8187
8188
8189
8190
8191
8192
8193
8194
8195
8196
8197
8199
8200
8201
8202
8203
8205
8206
8207
8208
8209
8210
8210
8211
8212
8213
8214
8214
8215
8215
8215
8216
8216
8216
8216
8216
8216
8216
8216
8216
8215
8215
8215
8214
8214
8213
8212
8211
8210
8209
8208
8207
8205
8204
8202
8201
8200
8198
8196
8195
8193
8192
8190
8188
8187
8185
8183
8182
8181
8179
8178
8177
8177
8176
8176
8175
8175
8175
8174
8174
8174
8173
8173
8172
8172
8172
8172
8172
8172
8172
8172
8172
8172
8172
8172
8172
8172
8172
8172
8172
8172
8173
8173
8173
8173
8173
8173
8172
8172
8172
8172
8172
8172
8172
8172
8172
8173
8173
8173
8173
8174
8174
8174
8175
8175
8176
8176
8177
8177
8177
8177
8178
8178
8178
8178
8178
8179
8179
8180
8181
8181
8182
8182
8183
8183
8184
8184
8184
8185
8185
8185
8185
8185
8186
8186
8186
8186
8186
8186
8186
8186
8186
8186
8186
8186
8185
8185
8185
8185
8185
8184
8184
8184
8184
8184
8184
8183
8183
8183
8183
8183
8183
8182
8182
8182
8182
8182
8182
8182
8182
8182
8182
8182
8182
8182
8182
8182
8182
8182
8181
8181
8181
8181
8181
8181
8181
8180
8180
8180
8180
8180
8180
8180
8181
8181
8181
8180
8180
8180
8180
8180
8180
8180
8180
8180
8180
8181
8181
8181
8181
8181
8181
8181
8182
8182
8182
8182
8182
8182
8181
8181
8181
8181
8181
8181
8181
8182
8182
8182
8182
8182
8182
8182
8182
8182
8182
8182
8182
8182
8182
8182
8182
8182
8182
8182
8182
8182
8182
8182
8182
8182
8182
8182
8182
8182
8182
8182
8182
8182
8182
8182
8182
8182
8182
8182
8182
8183
8183
8183
8183
8183
8183
8183
8183
8183
8183
8184
8184
8184
8184
8184
8184
8185
8185
8185
8185
8185
8185
8185
8185
8185
8185
8185
8185
8185
8185
8185
8185
8185
8186
8186
8186
8186
8187
8188
8189
8190
8191
8192
8193
8194
8195
8196
8196
8196
8197
8197
8198
8198
8199
8200
8201
8201
8202
8203
8204
8204
8205
8205
8205
8204
8204
8204
8203
8203
8202
8202
8201
8201
8200
8199
8197
8196
8194
8193
8191
8189
8187
8186
8184
8183
8182
8181
8181
8180
8180
8179
8179
8179
8179
8179
8179
8179
8178
8178
8178
8178
8178
8179
8179
8179
8179
8179
8179
8179
8178
8177
8177
8176
8176
8177
8180
8185
8194
8206
8224
8246
8273
8306
8342
8380
8419
8456
8488
8514
8530
8534
8526
8507
8478
8440
8397
8353
8309
8269
8234
8205
8183
8168
8158
8151
8148
8146
8147
8148
8150
8151
8153
8154
8154
8155
8155
8155
8155
8155
8156
8156
8156
8157
8157
8158
8158
8158
8159
8159
8159
8159
8159
8159
8159
8160
8160
8160
8160
8161
8161
8161
8162
8162
8162
8163
8163
8163
8163
8163
8164
8164
8164
8164
8164
8165
8165
8165
8165
8166
8166
8166
8167
8167
8167
8168
8168
8168
8168
8169
8169
8169
8169
8169
8170
8170
8171
8171
8171
8172
8172
8173
8173
8174
8174
8174
8175
8175
8176
8176
8177
8178
8178
8179
8179
8180
8181
8181
8182
8182
8183
8183
8184
8185
8185
8186
8187
8188
8190
8191
8192
8193
8195
8196
8197
8199
8200
8201
8202
8203
8204
8205
8206
8207
8208
8210
8211
8211
8212
8213
8214
8215
8216
8216
8217
8217
8217
8217
8218
8218
8218
8218
8218
8218
8218
8218
8218
8217
8217
8216
8216
8215
8214
8214
8213
8211
8210
8209
8207
8206
8204
8203
8201
8199
8198
8196
8194
8192
8191
8189
8188
8186
8185
8183
8182
8181
8180
8179
8179
8178
8177
8177
8176
8176
8175
8175
8175
8174
8174
8174
8174
8174
8174
8173
8173
8173
8173
8173
8173
8173
8173
8173
8173
8172
8172
8172
8172
8171
8171
8171
8171
8171
8171
8171
8171
8172
8172
8172
8172
8172
8172
8172
8172
8173
8173
8173
8173
8174
8174
8174
8174
8175
8175
8176
8176
8176
8177
8177
8177
8178
8178
8178
8178
8178
8179
8179
8180
8180
8180
8181
8182
8182
8182
8183
8183
8184
8184
8184
8184
8185
8185
8185
8185
8185
8185
8185
8185
8185
8185
8184
8184
8184
8184
8184
8184
8184
8184
8184
8184
8183
8183
8183
8183
8183
8183
8183
8183
8183
8182
8182
8182
8182
8182
8181
8181
8180
8180
8180
8180
8179
8179
8180
8180
8180
8180
8180
8180
8180
8179
8179
8179
8179
8179
8179
8179
8179
8179
8179
8179
8179
8179
8179
8179
8179
8179
8179
8179
8178
8178
8178
8178
8178
8178
8178
8178
8178
8179
8179
8179
8179
8179
8179
8179
8179
8179
8180
8180
8180
8180
8180
8180
8180
8180
8181
8181
8181
8181
8181
8181
8181
8181
8181
8181
8181
8181
8181
8181
8181
8181
8181
8181
8181
8181
8181
8181
8181
8181
8181
8181
8182
8182
8182
8182
8182
8182
8182
8182
8182
8182
8182
8182
8182
8182
8182
8182
8182
8182
8182
8182
8182
8182
8182
8182
8182
8182
8183
8183
8183
8183
8183
8183
8183
8184
8184
8184
8185
8186
8187
8188
8189
8190
8191
8192
8192
8193
8193
8194
8194
8195
8196
8198
8199
8200
8202
8203
8204
8205
8205
8205
8205
8205
8205
8204
8204
8204
8203
8203
8203
8202
8202
8201
8200
8198
8196
8194
8192
8190
8187
8185
8183
8182
8180
8180
8179
8178
8178
8178
8178
8178
8178
8178
8177
8177
8177
8177
8177
8177
8178
8178
8178
8178
8178
8179
8179
8179
8178
8178
8177
8177
8176
8177
8178
8182
8188
8197
8212
8231
8255
8285
8319
8356
8394
8432
8467
8496
8517
8528
8526
8513
8488
8455
8414
8370
8325
8283
8245
8213
8188
8170
8158
8149
8144
8142
8142
8143
8144
8146
8148
8150
8152
8153
8154
8155
8156
8156
8156
8157
8157
8157
8157
8157
8157
8157
8158
8158
8159
8159
8159
8160
8160
8160
8161
8161
8161
8161
8161
8161
8162
8162
8162
8163
8163
8164
8164
8164
8165
8165
8165
8165
8165
8166
8166
8166
8166
8166
8167
8167
8167
8167
8167
8167
8168
8168
8168
8168
8169
8169
8169
8170
8170
8170
8171
8171
8171
8172
8172
8172
8173
8174
8174
8174
8175
8176
8176
8176
8177
8177
8178
8178
8179
8179
8179
8180
8181
8182
8183
8183
8185
8185
8186
8187
8188
8189
8191
8192
8193
8195
8196
8197
8198
8199
8200
8201
8202
8203
8204
8205
8206
8207
8208
8209
8210
8210
8211
8212
8213
8213
8214
8214
8215
8215
8216
8216
8216
8216
8216
8216
8216
8216
8215
8215
8215
8214
8214
8213
8212
8211
8211
8210
8209
8208
8207
8206
8204
8203
8202
8200
8199
8197
8196
8194
8193
8192
8190
8188
8187
8185
8183
8182
8180
8179
8178
8177
8176
8175
8175
8174
8174
8173
8173
8173
8172
8172
8172
8172
8172
8172
8171
8171
8171
8171
8171
8171
8171
8171
8171
8171
8171
8171
8171
8171
8171
8171
8171
8171
8171
8171
8171
8171
8171
8171
8171
8172
8172
8172
8172
8172
8173
8173
8173
8174
8174
8174
8174
8174
8175
8175
8175
8175
8176
8176
8176
8177
8177
8178
8178
8178
8179
8179
8179
8180
8181
8181
8182
8182
8182
8183
8183
8183
8184
8184
8184
8184
8184
8184
8185
8185
8185
8185
8185
8185
8185
8185
8185
8185
8185
8184
8184
8184
8184
8184
8183
8183
8183
8183
8183
8183
8183
8183
8183
8182
8182
8182
8181
8181
8181
8181
8181
8181
8181
8181
8181
8181
8181
8181
8181
8181
8181
8181
8181
8180
8180
8180
8180
8180
8180
8180
8180
8180
8180
8180
8180
8180
8180
8180
8180
8180
8180
8180
8180
8180
8180
8180
8180
8180
8180
8180
8180
8180
8180
8180
8180
8180
8180
8180
8180
8180
8180
8181
8181
8181
8181
8181
8181
8181
8181
8180
8180
8180
8180
8180
8180
8180
8180
8181
8181
8181
8181
8181
8181
8181
8181
8181
8181
8181
8182
8182
8182
8182
8182
8183
8183
8183
8183
8183
8183
8183
8183
8182
8182
8183
8183
8183
8183
8183
8183
8184
8184
8185
8186
8187
8188
8189
8191
8192
8193
8193
8194
8195
8196
8196
8197
8198
8199
8199
8200
8201
8202
8203
8203
8203
8203
8203
8203
8203
8202
8202
8202
8201
8201
8200
8200
8199
8198
8197
8196
8194
8192
8190
8188
8186
8185
8183
8182
8180
8179
8179
8178
8177
8177
8177
8176
8176
8176
8177
8177
8177
8177
8178
8178
8178
8178
8178
8178
8178
8178
8178
8178
8178
8177
8177
8176
8176
8177
8179
8184
8191
8203
8220
8241
8267
8299
8334
8372
8410
8448
8481
8508
8525
8532
8526
8509
8481
8445
8403
8359
8315
8274
8239
8209
8186
8170
8158
8151
8147
8145
8145
8146
8148
8149
8150
8152
8153
8154
8154
8154
8155
8155
8155
8156
8156
8156
8157
8157
8158
8158
8159
8159
8159
8160
8160
8160
8160
8160
8160
8161
8161
8161
8162
8162
8162
8162
8163
8163
8163
8163
8164
8164
8164
8164
8165
8165
8165
8165
8166
8166
8166
8167
8167
8167
8168
8168
8168
8169
8169
8169
8169
8170
8170
8170
8171
8171
8171
8171
8172
8173
8173
8174
8174
8175
8175
8175
8175
8176
8176
8176
8177
8177
8178
8178
8179
8179
8180
8180
8181
8181
8182
8182
8183
8184
8184
8185
8186
8187
8188
8189
8191
8192
8193
8194
8195
8197
8198
8199
8200
8201
8202
8204
8205
8206
8207
8209
8210
8211
8212
8213
8214
8215
8215
8216
8217
8217
8218
8218
8219
8219
8219
8219
8219
8219
8219
8219
8219
8219
8218
8218
8218
8217
8217
8216
8215
8214
8213
8211
8210
8209
8207
8205
8204
8202
8200
8199
8197
8195
8193
8191
8189
8188
8186
8185
8183
8182
8181
8180
8180
8179
8178
8178
8177
8176
8176
8175
8175
8174
8174
8174
8173
8173
8173
8173
8173
8173
8173
8172
8172
8172
8172
8172
8172
8172
8172
8172
8172
8172
8172
8172
8172
8172
8172
8172
8172
8172
8172
8172
8172
8172
8173
8173
8173
8173
8174
8174
8174
8174
8175
8175
8175
8175
8176
8176
8176
8176
8177
8177
8178
8178
8178
8178
8179
8179
8179
8180
8180
8181
8181
8182
8182
8183
8183
8183
8184
8184
8185
8185
8185
8185
8186
8186
8186
8186
8186
8186
8186
8186
8186
8186
8186
8186
8186
8185
8185
8185
8185
8185
8185
8184
8184
8184
8184
8184
8183
8183
8183
8183
8183
8183
8183
8183
8183
8182
8182
8182
8182
8182
8182
8182
8182
8182
8182
8181
8181
8181
8181
8181
8181
8181
8180
8180
8180
8181
8181
8181
8181
8181
8181
8181
8181
8181
8181
8181
8181
8181
8181
8181
8181
8181
8181
8181
8181
8181
8181
8181
8181
8181
8181
8181
8181
8181
8181
8181
8181
8181
8181
8181
8181
8181
8181
8181
8181
8181
8182
8182
8182
8182
8182
8182
8182
8182
8182
8182
8182
8182
8182
8182
8182
8182
8183
8183
8183
8183
8183
8183
8183
8183
8183
8183
8183
8183
8183
8183
8184
8184
8184
8184
8184
8184
8184
8184
8184
8184
8184
8184
8183
8183
8183
8183
8183
8183
8183
8183
8184
8184
8184
8184
8184
8184
8184
8184
8184
8184
8184
8184
8184
8184
8184
8184
8184
8184
8184
8184
8184
8184
8184
8185
8184
8184
8184
8184
8184
8184
8184
8184
8184
8184
8185
8185
8185
8185
8185
8185
8185
8185
8185
8185
8185
8185
8185
8185
8185
8185
8185
8185
8185
8185
8185
8185
8185
8185
8185
8185
8185
8185
8185
8185
8185
8185
8185
8185
8185
8185
8185
8185
8186
8187
8188
8189
8190
8191
8192
8193
8194
8195
8195
8196
8196
8197
8197
8198
8199
8200
8201
8202
8203
8204
8204
8205
8205
8205
8205
8205
8205
8204
8204
8203
8203
8202
8202
8201
8200
8199
8198
8196
8194
8192
8190
8188
8186
8185
8183
8182
8181
8180
8180
8179
8179
8179
8179
8179
8179
8178
8178
8178
8178
8178
8178
8178
8178
8179
8179
8179
8179
8179
8179
8179
8178
8178
8177
8176
8175
8175
8176
8179
8186
8196
8211
8232
8258
8290
8326
8366
8407
8447
8484
8515
8536
8547
8546
8533
8508
8474
8433
8388
8342
8299
8260
8226
8199
8179
8165
8155
8149
8146
8145
8145
8146
8147
8148
8149
8150
8151
8151
8151
8152
8152
8152
8152
8152
8153
8153
8153
8154
8154
8155
8155
8155
8156
8156
8156
8157
8157
8157
8157
8157
8157
8158
8158
8158
8158
8159
8159
8160
8160
8161
8161
8161
8162
8162
8162
8162
8162
8162
8162
8162
8162
8162
8162
8163
8163
8163
8163
8163
8164
8164
8164
8164
8165
8165
8165
8165
8166
8166
8167
8167
8168
8168
8169
8169
8170
8171
8171
8171
8172
8172
8172
8172
8173
8173
8174
8174
8175
8175
8176
8176
8177
8178
8179
8179
8180
8181
8182
8182
8183
8184
8185
8186
8187
8188
8189
8190
8191
8192
8193
8194
8195
8196
8196
8197
8198
8199
8200
8201
8202
8203
8203
8204
8204
8205
8206
8206
8207
8207
8208
8208
8208
8208
8208
8208
8208
8208
8208
8207
8207
8207
8207
8207
8207
8206
8206
8205
8205
8204
8203
8202
8201
8200
8199
8198
8197
8196
8194
8193
8192
8190
8189
8187
8186
8185
8183
8182
8181
8180
8179
8179
8178
8178
8177
8177
8176
8176
8176
8175
8175
8175
8174
8174
8174
8174
8174
8175
8175
8175
8175
8175
8175
8175
8174
8174
8174
8174
8174
8174
8174
8174
8174
8174
8174
8174
8174
8174
8174
8174
8174
8175
8175
8175
8175
8175
8175
8175
8175
8175
8175
8175
8175
8175
8176
8176
8176
8176
8177
8177
8177
8177
8177
8177
8177
8177
8178
8178
8178
8178
8179
8179
8179
8180
8180
8180
8181
8181
8181
8182
8182
8182
8182
8182
8182
8182
8182
8182
8182
8182
8182
8182
8182
8182
8182
8182
8181
8181
8181
8181
8180
8180
8180
8180
8180
8180
8180
8180
8180
8180
8180
8180
8180
8179
8179
8179
8179
8179
8179
8179
8179
8179
8179
8179
8178
8178
8178
8178
8178
8178
8178
8178
8178
8178
8178
8178
8178
8178
8178
8178
8178
8178
8178
8177
8177
8177
8177
8176
8176
8176
8176
8176
8176
8177
8177
8177
8177
8177
8177
8177
8176
8176
8176
8176
8176
8176
8177
8177
8177
8177
8177
8177
8177
8177
8177
8177
8177
8177
8177
8177
8177
8177
8177
8178
8178
8178
8178
8178
8178
8178
8178
8178
8178
8178
8178
8178
8178
8178
8178
8178
8178
8178
8178
8178
8178
8179
8179
8179
8178
8178
8178
8178
8178
8178
8178
8178
8178
8178
8178
8178
8178
8178
8178
8178
8177
8177
8177
8178
8178
8178
8178
8178
8178
8178
8179
8179
8179
8179
8179
8179
8179
8179
8179
8179
8179
8179
8179
8180
8180
8180
8180
8180
8181
8181
8181
8181
8181
8181
8181
8181
8182
8182
8182
8182
8182
8182
8183
8183
8183
8183
8183
8183
8183
8183
8183
8183
8183
8183
8183
8183
8183
8183
8182
8183
8183
8183
8183
8183
8183
8183
8183
8183
8183
8183
8183
8183
8183
8183
8183
8183
8184
8184
8184
8184
8184
8184
8184
8184
8184
8184
8184
8184
8184
8185
8185
8185
8184
8184
8184
8184
8184
8183
8183
8183
8183
8183
8183
8183
8184
8184
8184
8184
8184
8184
8184
8184
8184
8184
8184
8185
8185
8186
8186
8187
8188
8189
8190
8191
8192
8193
8194
8195
8195
8196
8197
8198
8199
8200
8201
8202
8203
8204
8204
8205
8206
8206
8206
8206
8206
8205
8204
8204
8203
8203
8202
8201
8200
8199
8198
8197
8195
8193
8192
8189
8187
8186
8184
8182
8181
8180
8180
8179
8179
8179
8178
8178
8178
8178
8179
8179
8179
8179
8179
8179
8179
8179
8179
8179
8179
8179
8179
8179
8178
8177
8177
8176
8177
8180
8185
8195
8209
8229
8255
8286
8322
8362
8403
8443
8480
8511
8534
8546
8546
8533
8510
8476
8436
8391
8345
8301
8261
8227
8200
8179
8164
8154
8147
8144
8143
8143
8144
8146
8147
8149
8150
8151
8152
8153
8153
8154
8154
8154
8155
8155
8155
8156
8156
8156
8156
8156
8156
8156
8156
8157
8157
8157
8157
8158
8158
8159
8159
8159
8160
8160
8160
8160
8160
8161
8161
8161
8161
8162
8162
8162
8162
8163
8163
8163
8163
8164
8164
8164
8164
8164
8164
8164
8165
8165
8165
8165
8166
8166
8166
8166
8167
8167
8167
8167
8167
8167
8167
8167
8168
8168
8169
8169
8170
8170
8171
8171
8172
8172
8173
8173
8174
8174
8175
8175
8176
8176
8177
8178
8178
8179
8180
8180
8181
8182
8183
8184
8185
8186
8188
8189
8190
8191
8192
8193
8194
8195
8196
8196
8197
8198
8198
8199
8200
8200
8201
8202
8202
8203
8203
8203
8204
8204
8204
8204
8204
8204
8204
8204
8204
8204
8204
8204
8204
8204
8204
8203
8203
8203
8203
8203
8202
8202
8201
8201
8200
8200
8199
8198
8197
8196
8195
8194
8192
8191
8190
8188
8187
8187
8186
8185
8184
8184
8183
8182
8182
8181
8180
8179
8179
8178
8178
8177
8177
8176
8176
8176
8175
8175
8175
8175
8175
8175
8175
8175
8174
8175
8175
8174
8174
8174
8174
8174
8174
8174
8174
8174
8174
8174
8174
8174
8174
8174
8175
8175
8175
8175
8175
8175
8176
8176
8176
8176
8176
8177
8177
8178
8178
8178
8179
8179
8180
8180
8181
8181
8181
8182
8182
8182
8183
8183
8183
8183
8183
8184
8184
8184
8184
8184
8185
8185
8185
8185
8186
8186
8186
8186
8186
8186
8186
8186
8185
8185
8185
8185
8185
8184
8184
8184
8184
8183
8183
8183
8183
8182
8182
8182
8182
8182
8182
8182
8182
8182
8182
8182
8181
8181
8181
8180
8180
8180
8180
8180
8180
8180
8180
8180
8180
8180
8180
8180
8180
8180
8180
8180
8180
8180
8180
8180
8180
8180
8180
8180
8180
8181
8181
8181
8181
8181
8181
8181
8181
8181
8180
8180
8180
8180
8180
8180
8180
8180
8180
8180
8180
8180
8180
8180
8180
8181
8181
8181
8181
8181
8181
8181
8181
8181
8180
8180
8180
8180
8180
8181
8181
8181
8181
8181
8181
8182
8182
8182
8182
8182
8182
8182
8182
8182
8182
8182
8182
8182
8182
8182
8182
8183
8183
8183
8183
8183
8183
8182
8182
8182
8182
8182
8182
8182
8182
8182
8183
8183
8183
8183
8183
8183
8183
8183
8183
8183
8183
8183
8183
8184
8184
8184
8184
8184
8184
8184
8184
8184
8184
8184
8184
8184
8184
8184
8184
8184
8184
8185
8185
8186
8186
8187
8188
8189
8190
8191
8192
8193
8193
8194
8194
8195
8196
8197
8198
8199
8200
8201
8202
8203
8203
8204
8204
8204
8204
8204
8204
8204
8203
8203
8202
8202
8201
8201
8200
8199
8198
8197
8195
8193
8191
8189
8187
8185
8184
8182
8181
8181
8180
8179
8179
8179
8179
8179
8179
8179
8179
8179
8179
8179
8179
8179
8179
8179
8179
8179
8178
8178
8178
8178
8178
8177
8177
8177
8178
8180
8184
8191
8202
8217
8237
8262
8292
8326
8363
8401
8439
8473
8501
8520
8530
8527
8512
8486
8452
8412
8367
8323
8282
8245
8214
8190
8172
8160
8152
8147
8145
8145
8146
8148
8150
8151
8153
8154
8155
8156
8157
8157
8157
8158
8158
8158
8158
8158
8159
8159
8159
8159
8160
8160
8160
8161
8161
8161
8162
8162
8163
8163
8163
8164
8164
8164
8164
8165
8165
8165
8166
8166
8166
8167
8167
8167
8167
8167
8168
8168
8168
8168
8168
8168
8169
8169
8169
8170
8170
8170
8171
8171
8171
8172
8172
8172
8173
8173
8173
8174
8174
8174
8174
8174
8174
8175
8175
8175
8176
8176
8176
8177
8177
8178
8178
8179
8179
8180
8180
8181
8182
8182
8183
8184
8185
8185
8186
8187
8188
8188
8189
8190
8192
8193
8194
8196
8197
8198
8199
8200
8201
8202
8203
8204
8205
8207
8208
8209
8209
8210
8211
8211
8212
8212
8213
8213
8214
8214
8215
8215
8215
8216
8216
8216
8216
8216
8216
8216
8216
8215
8215
8215
8215
8214
8213
8213
8212
8211
8210
8209
8208
8206
8205
8204
8202
8201
8199
8198
8196
8194
8193
8191
8190
8188
8187
8186
8185
8184
8183
8182
8181
8180
8179
8179
8178
8177
8176
8175
8175
8174
8174
8173
8173
8173
8172
8172
8172
8172
8172
8172
8172
8172
8171
8171
8171
8171
8171
8171
8171
8171
8171
8172
8172
8172
8172
8172
8172
8173
8173
8173
8173
8174
8174
8174
8175
8176
8176
8177
8177
8178
8178
8179
8179
8179
8180
8180
8180
8180
8181
8181
8181
8181
8181
8182
8182
8182
8183
8183
8184
8184
8184
8185
8185
8185
8185
8185
8185
8185
8185
8185
8185
8186
8186
8186
8186
8186
8186
8186
8186
8186
8186
8185
8185
8185
8184
8184
8184
8183
8183
8183
8183
8183
8182
8182
8182
8182
8182
8182
8182
8182
8182
8182
8182
8181
8181
8181
8181
8180
8180
8180
8180
8180
8180
8180
8180
8180
8180
8180
8180
8180
8180
8180
8180
8179
8179
8179
8179
8179
8179
8179
8179
8179
8179
8179
8180
8180
8180
8180
8180
8180
8180
8180
8180
8180
8180
8180
8180
8180
8181
8181
8181
8181
8181
8181
8181
8181
8180
8180
8180
8180
8180
8181
8181
8181
8181
8181
8181
8181
8181
8181
8181
8182
8182
8182
8181
8181
8181
8181
8181
8181
8181
8181
8182
8182
8182
8182
8182
8182
8183
8183
8183
8183
8183
8183
8183
8182
8182
8182
8183
8183
8183
8183
8183
8184
8184
8184
8184
8184
8184
8183
8183
8183
8183
8183
8184
8184
8184
8184
8184
8185
8185
8185
8185
8185
8185
8185
8185
8185
8185
8185
8185
8185
8186
8186
8186
8186
8187
8187
8187
8187
8187
8187
8187
8187
8187
8187
8187
8187
8187
8187
8187
8187
8187
8187
8187
8187
8188
8188
8188
8189
8189
8189
8190
8191
8192
8192
8193
8194
8195
8195
8196
8196
8197
8197
8198
8198
8199
8200
8201
8202
8203
8205
8206
8206
8207
8207
8208
8208
8207
8207
8207
8206
8206
8205
8205
8205
8204
8203
8203
8202
8201
8199
8198
8196
8194
8192
8190
8188
8187
8185
8184
8183
8183
8182
8182
8181
8181
8181
8181
8181
8181
8181
8180
8180
8180
8180
8180
8180
8180
8180
8180
8180
8180
8179
8179
8178
8177
8177
8177
8179
8182
8189
8200
8216
8237
8264
8296
8333
8373
8413
8453
8488
8517
8536
8545
8540
8524
8497
8461
8419
8374
8329
8287
8250
8219
8194
8176
8163
8155
8150
8147
8146
8147
8148
8149
8150
8151
8152
8153
8154
8154
8154
8155
8155
8155
8155
8155
8155
8156
8156
8156
8156
8156
8156
8157
8157
8158
8158
8158
8159
8160
8160
8160
8161
8161
8161
8161
8161
8161
8162
8162
8162
8162
8162
8163
8163
8163
8164
8164
8164
8164
8165
8165
8165
8165
8165
8166
8166
8166
8167
8167
8167
8168
8168
8168
8168
8169
8169
8170
8170
8171
8171
8171
8172
8172
8172
8173
8173
8173
8173
8174
8174
8175
8175
8176
8177
8177
8178
8179
8179
8180
8180
8181
8182
8182
8183
8184
8184
8185
8187
8188
8189
8190
8192
8193
8194
8195
8196
8197
8197
8198
8199
8200
8200
8201
8202
8203
8204
8204
8205
8206
8207
8208
8209
8210
8210
8211
8212
8212
8212
8213
8213
8213
8213
8213
8213
8213
8213
8212
8212
8211
8211
8210
8210
8210
8209
8209
8208
8207
8207
8206
8205
8204
8203
8202
8201
8200
8199
8197
8196
8195
8194
8192
8191
8189
8188
8187
8186
8184
8183
8182
8182
8181
8180
8179
8179
8178
8178
8178
8177
8177
8177
8176
8176
8176
8175
8175
8175
8175
8175
8175
8175
8174
8174
8174
8174
8174
8174
8175
8175
8175
8175
8176
8176
8176
8176
8176
8177
8177
8177
8177
8177
8177
8177
8177
8178
8178
8178
8178
8178
8178
8178
8179
8179
8179
8180
8180
8181
8181
8181
8181
8182
8182
8182
8183
8183
8183
8183
8184
8184
8184
8185
8185
8185
8185
8185
8185
8186
8186
8186
8185
8185
8185
8185
8185
8185
8185
8185
8185
8185
8185
8185
8185
8185
8185
8184
8184
8184
8184
8184
8184
8183
8183
8183
8183
8183
8182
8182
8182
8182
8181
8181
8181
8181
8181
8181
8181
8181
8181
8181
8181
8181
8182
8182
8182
8182
8182
8182
8182
8182
8182
8182
8182
8182
8182
8182
8181
8181
8181
8181
8181
8181
8181
8181
8181
8181
8181
8181
8181
8181
8181
8181
8181
8181
8181
8181
8181
8182
8181
8181
8181
8181
8181
8181
8181
8181
8181
8181
8181
8181
8181
8182
8182
8182
8182
8182
8182
8182
8182
8182
8182
8182
8182
8182
8182
8182
8182
8182
8182
8183
8183
8183
8183
8183
8183
8183
8183
8183
8182
8183
8183
8183
8183
8183
8183
8183
8183
8183
8183
8183
8183
8183
8183
8183
8183
8183
8183
8183
8183
8183
8183
8183
8183
8183
8183
8183
8183
8183
8184
8184
8184
8184
8184
8184
8184
8184
8184
8184
8184
8184
8184
8184
8184
8184
8184
8184
8184
8184
8184
8184
8184
8184
8184
8184
8184
8184
8184
8184
8184
8184
8184
8185
8185
8185
8185
8185
8185
8185
8185
8185
8185
8185
8185
8185
8185
8186
8186
8186
8187
8188
8189
8190
8191
8192
8193
8194
8195
8196
8197
8197
8198
8199
8200
8201
8202
8203
8203
8204
8205
8205
8206
8206
8206
8206
8205
8205
8204
8203
8203
8202
8202
8201
8200
8200
8199
8197
8196
8194
8192
8190
8188
8186
8185
8183
8182
8181
8181
8180
8180
8179
8179
8179
8179
8179
8179
8179
8179
8179
8179
8179
8179
8179
8179
8179
8179
8179
8179
8179
8178
8177
8177
8176
8176
8176
8178
8183
8191
8203
8221
8244
8273
8308
8346
8386
8427
8466
8499
8526
8542
8546
8538
8518
8488
8450
8407
8361
8317
8276
8240
8210
8186
8170
8158
8150
8146
8143
8143
8144
8145
8146
8148
8149
8150
8150
8151
8151
8152
8152
8152
8152
8152
8153
8153
8153
8154
8154
8155
8155
8155
8156
8156
8156
8156
8157
8157
8157
8157
8157
8157
8157
8157
8157
8158
8158
8158
8158
8159
8159
8159
8160
8160
8160
8160
8160
8161
8161
8161
8161
8161
8161
8162
8162
8163
8163
8163
8164
8164
8164
8165
8165
8165
8165
8166
8166
8166
8166
8166
8167
8167
8167
8168
8168
8168
8168
8169
8169
8169
8170
8170
8171
8171
8172
8173
8174
8174
8175
8175
8176
8177
8177
8178
8179
8179
8180
8181
8182
8182
8183
8184
8185
8186
8188
8189
8190
8192
8193
8194
8195
8196
8197
8198
8198
8199
8200
8200
8201
8202
8203
8203
8204
8204
8205
8205
8205
8206
8206
8206
8206
8206
8206
8206
8206
8206
8206
8206
8205
8205
8205
8205
8204
8204
8204
8203
8203
8202
8201
8200
8199
8198
8197
8195
8194
8193
