ECG (500 Hz)
8163
8162
8161
8158
8154
8153
8154
8156
8160
8164
8167
8170
8171
8171
8171
8169
8168
8169
8169
8170
8170
8168
8166
8163
8161
8162
8164
8167
8170
8172
8174
8173
8171
8167
8163
8160
8161
8165
8168
8169
8170
8170
8169
8170
8174
8176
8174
8172
8172
8171
8170
8171
8172
8173
8172
8172
8173
8174
8174
8173
8172
8170
8169
8170
8171
8171
8170
8169
8168
8168
8167
8169
8175
8180
8182
8181
8179
8177
8178
8178
8176
8173
8170
8167
8165
8168
8171
8173
8172
8172
8172
8173
8175
8176
8177
8179
8180
8181
8181
8179
8178
8178
8180
8181
8181
8179
8177
8175
8175
8180
8184
8186
8188
8191
8193
8192
8192
8193
8195
8199
8202
8204
8206
8207
8206
8204
8202
8200
8199
8198
8194
8190
8188
8189
8191
8190
8188
8186
8184
8182
8180
8177
8173
8171
8174
8175
8174
8174
8175
8176
8177
8176
8172
8168
8165
8164
8167
8170
8171
8170
8169
8167
8167
8166
8167
8170
8176
8187
8205
8227
8254
8286
8328
8380
8435
8492
8552
8610
8657
8687
8698
8690
8662
8617
8561
8500
8438
8377
8324
8279
8241
8212
8191
8178
8173
8172
8169
8164
8157
8152
8149
8149
8149
8148
8145
8142
8140
8139
8138
8136
8134
8131
8129
8129
8131
8133
8136
8139
8140
8140
8138
8135
8133
8132
8130
8132
8135
8138
8140
8140
8141
8140
8138
8135
8135
8142
8150
8153
8155
8157
8158
8156
8152
8149
8148
8148
8149
8150
8151
8154
8157
8160
8161
8160
8161
8161
8159
8154
8153
8154
8155
8157
8159
8161
8161
8163
8167
8170
8173
8175
8176
8176
8174
8175
8176
8177
8179
8179
8180
8181
8183
8187
8191
8194
8197
8200
8202
8204
8204
8205
8206
8206
8205
8205
8207
8209
8210
8210
8209
8210
8212
8213
8212
8209
8207
8207
8209
8210
8209
8206
8203
8202
8204
8209
8211
8206
8201
8196
8189
8184
8178
8174
8175
8177
8179
8180
8181
8180
8177
8174
8170
8166
8162
8163
8165
8166
8168
8167
8164
8161
8161
8160
8158
8155
8154
8155
8155
8154
8152
8151
8152
8154
8153
8153
8153
8154
8155
8155
8155
8155
8155
8155
8156
8158
8159
8158
8158
8158
8157
8158
8159
8159
8158
8157
8156
8155
8154
8154
8154
8155
8157
8159
8161
8162
8162
8161
8162
8164
8168
8171
8171
8170
8169
8167
8164
8162
8161
8163
8167
8169
8169
8169
8168
8169
8168
8166
8165
8164
8165
8165
8167
8169
8171
8172
8171
8171
8171
8172
8173
8176
8178
8179
8177
8174
8172
8171
8171
8172
8174
8176
8177
8175
8173
8171
8169
8168
8169
8172
8173
8173
8173
8173
8173
8171
8169
8168
8168
8168
8168
8169
8170
8171
8173
8176
8176
8176
8176
8177
8177
8178
8180
8182
8183
8182
8179
8176
8175
8176
8178
8180
8179
8175
8172
8172
8175
8177
8178
8180
8182
8186
8188
8190
8192
8189
8186
8186
8186
8188
8190
8191
8190
8190
8196
8204
8210
8213
8211
8207
8204
8205
8208
8211
8211
8207
8200
8194
8188
8183
8180
8177
8177
8176
8174
8172
8172
8172
8171
8171
8171
8171
8171
8171
8170
8171
8173
8175
8174
8173
8172
8171
8170
8170
8169
8169
8169
8170
8172
8175
8183
8195
8213
8237
8268
8306
8353
8405
8461
8521
8579
8630
8668
8693
8702
8694
8666
8620
8559
8491
8423
8360
8308
8265
8228
8200
8180
8170
8164
8161
8159
8159
8157
8155
8150
8146
8142
8139
8137
8135
8133
8133
8135
8136
8136
8136
8135
8135
8133
8131
8131
8131
8132
8133
8137
8140
8141
8140
8140
8142
8144
8146
8146
8144
8141
8140
8140
8142
8144
8144
8141
8140
8141
8143
8143
8143
8144
8147
8151
8154
8154
8154
8153
8155
8158
8160
8159
8158
8158
8158
8158
8158
8158
8157
8157
8160
8164
8165
8165
8166
8165
8166
8167
8170
8172
8174
8176
8176
8177
8177
8178
8180
8182
8184
8187
8190
8192
8192
8193
8196
8199
8200
8201
8202
8202
8203
8205
8206
8206
8206
8206
8207
8207
8206
8205
8205
8206
8208
8210
8210
8209
8208
8206
8203
8199
8195
8193
8195
8197
8198
8199
8197
8195
8193
8193
8192
8189
8186
8183
8182
8181
8180
8181
8182
8182
8180
8176
8172
8171
8170
8168
8161
8154
8149
8147
8146
8148
8151
8154
8157
8160
8162
8163
8162
8158
8154
8150
8148
8147
8147
8148
8149
8150
8150
8150
8151
8153
8154
8153
8153
8155
8157
8157
8156
8156
8156
8156
8155
8156
8158
8161
8163
8164
8164
8164
8164
8163
8162
8163
8164
8165
8163
8161
8161
8164
8165
8164
8164
8165
8166
8166
8168
8168
8169
8171
8171
8170
8169
8169
8168
8166
8167
8171
8174
8176
8178
8180
8182
8183
8181
8178
8175
8175
8178
8180
8180
8177
8173
8169
8166
8165
8166
8167
8169
8171
8176
8182
8185
8185
8182
8178
8176
8174
8171
8168
8166
8165
8165
8165
8164
8163
8163
8164
8166
8167
8168
8170
8171
8172
8172
8172
8173
8173
8171
8169
8167
8162
8161
8165
8172
8176
8179
8182
8184
8186
8187
8188
8187
8187
8189
8192
8194
8198
8202
8206
8208
8206
8201
8197
8194
8191
8188
8188
8192
8195
8197
8200
8203
8204
8205
8205
8203
8200
8200
8201
8201
8201
8200
8198
8193
8185
8180
8176
8174
8174
8174
8174
8173
8173
8172
8170
8169
8168
8168
8168
8168
8170
8171
8172
8173
8173
8171
8169
8170
8172
8173
8174
8176
8178
8183
8189
8198
8211
8232
8261
8295
8336
8384
8438
8497
8557
8611
8651
8676
8686
8681
8657
8615
8559
8497
8435
8376
8326
8283
8244
8213
8191
8176
8167
8161
8156
8152
8149
8147
8145
8144
8142
8140
8138
8138
8139
8138
8139
8141
8142
8141
8140
8140
8139
8136
8135
8136
8137
8137
8135
8132
8133
8135
8135
8136
8137
8141
8145
8148
8151
8152
8152
8151
8150
8152
8152
8153
8154
8153
8150
8147
8147
8149
8151
8152
8150
8146
8143
8142
8144
8149
8152
8154
8154
8154
8154
8154
8155
8157
8159
8161
8162
8165
8168
8171
8172
8173
8174
8176
8177
8178
8178
8176
8176
8177
8179
8180
8182
8184
8187
8191
8195
8197
8199
8202
8204
8204
8204
8204
8203
8201
8198
8198
8198
8198
8199
8202
8206
8209
8210
8211
8213
8215
8214
8213
8211
8206
8202
8199
8201
8203
8204
8202
8199
8198
8197
8194
8189
8186
8184
8182
8181
8180
8178
8176
8176
8176
8177
8178
8180
8178
8173
8168
8163
8159
8159
8160
8161
8164
8166
8168
8168
8165
8160
8155
8152
8152
8153
8156
8159
8159
8159
8159
8157
8155
8154
8154
8155
8156
8158
8160
8160
8159
8157
8156
8156
8156
8155
8156
8155
8154
8154
8153
8155
8158
8159
8159
8160
8161
8165
8168
8168
8168
8168
8168
8168
8169
8171
8170
8169
8169
8169
8169
8169
8169
8169
8168
8170
8173
8178
8183
8185
8183
8178
8172
8168
8166
8165
8165
8165
8167
8169
8170
8171
8171
8170
8170
8169
8170
8170
8171
8172
8173
8175
8176
8176
8175
8173
8173
8175
8178
8180
8181
8180
8181
8180
8178
8176
8173
8170
8169
8169
8169
8171
8172
8171
8171
8170
8169
8169
8172
8174
8176
8178
8182
8187
8189
8189
8187
8185
8184
8184
8182
8178
8174
8172
8172
8172
8174
8176
8177
8179
8181
8182
8183
8185
8188
8192
8196
8198
8200
8202
8202
8200
8198
8197
8198
8200
8202
8204
8204
8205
8205
8205
8205
8205
8203
8200
8196
8193
8190
8189
8186
8183
8179
8177
8176
8176
8177
8179
8177
8175
8174
8175
8175
8174
8172
8170
8169
8167
8168
8168
8168
8168
8169
8169
8168
8168
8170
8174
8179
8183
8193
8209
8229
8255
8291
8335
8381
8428
8483
8545
8604
8653
8685
8700
8700
8682
8647
8596
8536
8472
8410
8354
8305
8263
8231
8209
8193
8180
8172
8166
8161
8158
8156
8154
8153
8150
8148
8145
8140
8135
8132
8130
8130
8130
8130
8131
8130
8130
8131
8133
8136
8139
8141
8140
8140
8139
8138
8136
8136
8135
8135
8136
8138
8140
8144
8149
8151
8151
8150
8149
8146
8143
8143
8142
8143
8144
8145
8145
8147
8149
8150
8152
8154
8156
8158
8158
8158
8159
8160
8161
8163
8162
8161
8161
8163
8166
8170
8174
8174
8174
8172
8170
8169
8170
8172
8175
8177
8180
8183
8186
8186
8184
8182
8181
8182
8183
8184
8186
8189
8193
8198
8201
8201
8201
8201
8202
8203
8206
8206
8205
8206
8206
8208
8210
8212
8214
8217
8217
8212
8208
8207
8207
8206
8205
8204
8203
8201
8199
8196
8193
8191
8191
8192
8191
8189
8188
8187
8185
8183
8181
8179
8177
8174
8172
8171
8170
8169
8166
8164
8167
8171
8171
8168
8167
8167
8168
8167
8165
8161
8157
8155
8154
8151
8151
8155
8159
8159
8157
8155
8154
8154
8155
8155
8155
8156
8158
8160
8161
8161
8162
8162
8161
8160
8159
8159
8159
8161
8162
8162
8161
8161
8162
8163
8163
8162
8161
8162
8164
8166
8168
8171
8172
8173
8174
8174
8173
8169
8164
8161
8162
8164
8165
8165
8165
8165
8165
8165
8166
8168
8170
8171
8172
8172
8172
8173
8174
8176
8179
8182
8184
8181
8177
8173
8172
8173
8176
8178
8179
8178
8176
8174
8173
8173
8173
8172
8170
8169
8169
8170
8172
8173
8174
8173
8171
8169
8169
8169
8169
8167
8168
8170
8170
8170
8170
8171
8172
8172
8173
8174
8175
8176
8177
8177
8179
8180
8179
8178
8177
8177
8176
8176
8177
8178
8179
8179
8179
8179
8180
8181
8181
8184
8189
8194
8198
8199
8201
8202
8202
8204
8206
8208
8208
8207
8206
8205
8202
8199
8197
8195
8195
8195
8197
8199
8198
8197
8194
8192
8192
8190
8187
8183
8178
8177
8179
8183
8185
8183
8176
8170
8165
8163
8162
8163
8162
8161
8163
8164
8164
8165
8166
8167
8169
8171
8172
8172
8171
8172
8176
8184
8198
8217
8240
8267
8300
8343
8394
8450
8511
8573
8631
8677
8705
8714
8705
8678
8633
8575
8512
8447
8386
8333
8287
8248
8217
8194
8178
8169
8165
8163
8160
8156
8152
8151
8150
8148
8147
8145
8142
8139
8136
8134
8133
8133
8133
8133
8132
8130
8127
8126
8127
8129
8131
8132
8133
8132
8131
8133
8134
8135
8134
8135
8136
8135
8136
8140
8143
8146
8149
8151
8151
8153
8154
8154
8152
8151
8152
8152
8150
8149
8148
8146
8144
8143
8144
8144
8146
8149
8151
8152
8153
8155
8159
8163
8165
8165
8164
8163
8164
8164
8165
8166
8166
8169
8172
8174
8173
8171
8170
8170
8173
8176
8180
8184
8186
8187
8189
8192
8194
8195
8195
8194
8194
8195
8197
8198
8200
8202
8204
8204
8204
8204
8204
8203
8204
8204
8203
8202
8203
8205
8206
8205
8203
8201
8200
8201
8201
8200
8198
8196
8194
8191
8189
8186
8184
8182
8181
8180
8179
8176
8172
8169
8168
8169
8170
8171
8172
8171
8168
8164
8157
8153
8154
8155
8158
8160
8162
8162
8160
8159
8158
8156
8153
8150
8147
8145
8145
8146
8148
8150
8151
8153
8154
8154
8153
8152
8152
8153
8152
8151
8151
8152
8154
8155
8157
8159
8160
8161
8162
8162
8162
8163
8163
8163
8162
8162
8165
8166
8165
8162
8161
8161
8162
8164
8165
8164
8164
8165
8165
8164
8165
8166
8168
8169
8167
8163
8160
8159
8161
8165
8169
8172
8174
8176
8176
8173
8170
8171
8174
8175
8176
8174
8170
8167
8166
8166
8167
8170
8172
8173
8174
8174
8175
8175
8172
8168
8165
8164
8164
8167
8169
8171
8171
8171
8172
8174
8173
8172
8171
8171
8171
8171
8171
8170
8170
8170
8171
8171
8171
8172
8174
8175
8175
8175
8173
8171
8171
8172
8170
8170
8171
8172
8173
8174
8176
8177
8178
8179
8181
8182
8185
8186
8187
8188
8191
8195
8198
8199
8199
8198
8196
8195
8196
8198
8201
8203
8205
8206
8204
8199
8195
8195
8198
8198
8196
8192
8188
8185
8182
8179
8177
8176
8175
8175
8175
8176
8177
8179
8178
8176
8174
8172
8171
8170
8168
8165
8162
8160
8158
8158
8160
8164
8169
8171
8170
8169
8169
8174
8183
8200
8224
8255
8290
8329
8376
8428
8483
8539
8594
8638
8666
8679
8676
8658
8623
8571
8509
8444
8381
8326
8281
8246
8217
8195
8179
8173
8170
8167
8162
8157
8154
8151
8147
8143
8138
8136
8135
8134
8135
8137
8138
8137
8135
8134
8133
8133
8134
8135
8135
8133
8130
8132
8136
8140
8142
8142
8140
8137
8136
8137
8139
8142
8148
8154
8156
8154
8149
8145
8142
8142
8143
8146
8148
8150
8153
8153
8150
8148
8148
8148
8149
8150
8152
8154
8154
8154
8154
8156
8158
8159
8160
8162
8163
8164
8164
8165
8168
8170
8172
8174
8174
8174
8173
8174
8175
8176
8178
8181
8186
8187
8187
8186
8187
8188
8191
8193
8194
8195
8197
8199
8202
8205
8208
8210
8210
8208
8206
8206
8206
8208
8209
8210
8211
8211
8209
8208
8209
8210
8213
8213
8211
8206
8202
8201
8200
8199
8199
8201
8202
8201
8198
8192
8185
8180
8176
8173
8173
8173
8173
8171
8170
8168
8167
8165
8162
8160
8159
8159
8159
8158
8157
8158
8159
8159
8160
8161
8161
8161
8160
8159
8158
8158
8158
8158
8158
8159
8161
8162
8161
8160
8159
8159
8159
8159
8158
8156
8156
8157
8158
8158
8157
8156
8154
8154
8154
8154
8155
8156
8158
8160
8163
8166
8167
8166
8165
8164
8163
8163
8164
8166
8168
8169
8171
8172
8173
8173
8171
8168
8165
8163
8164
8165
8167
8169
8173
8176
8176
8174
8172
8171
8170
8170
8171
8170
8169
8170
8172
8175
8177
8177
8177
8175
8174
8173
8172
8173
8174
8175
8175
8175
8174
8174
8174
8175
8176
8177
8177
8177
8176
8175
8175
8173
8172
8171
8172
8173
8173
8172
8172
8173
8176
8179
8179
8177
8175
8175
8174
8176
8179
8182
8183
8182
8179
8177
8177
8180
8183
8186
8187
8186
8182
8179
8178
8180
8183
8187
8192
8195
8196
8196
8196
8196
8196
8198
8201
8206
8211
8215
8215
8212
8209
8206
8205
8204
8201
8198
8195
8192
8192
8194
8195
8192
8185
8181
8178
8176
8174
8172
8168
8166
8165
8166
8166
8166
8165
8165
8165
8166
8167
8169
8170
8171
8172
8172
8172
8171
8171
8173
8177
8182
8191
8205
8224
8250
8284
8326
8375
8428
8485
8546
8606
8656
8688
8702
8697
8674
8635
8581
8518
8453
8391
8338
8291
8251
8220
8198
8184
8175
8169
8165
8161
8158
8154
8151
8148
8145
8140
8136
8135
8137
8138
8139
8140
8140
8141
8141
8140
8139
8137
8136
8135
8136
8137
8138
8138
8137
8137
8137
8136
8137
8139
8141
8141
8142
8143
8145
8148
8151
8153
8154
8154
8154
8154
8155
8155
8155
8153
8152
8151
8149
8148
8149
8149
8149
8150
8151
8152
8153
8156
8158
8159
8160
8161
8161
8163
8166
8168
8169
8169
8168
8169
8171
8174
8176
8176
8175
8175
8177
8179
8182
8184
8187
8193
8195
8195
8194
8194
8196
8199
8200
8199
8198
8201
8205
8206
8205
8204
8204
8206
8209
8210
8209
8209
8209
8208
8207
8207
8208
8209
8211
8214
8214
8211
8208
8204
8201
8199
8197
8196
8194
8192
8190
8194
8198
8200
8198
8193
8188
8184
8181
8179
8178
8176
8174
8173
8172
8170
8167
8164
8162
8161
8162
8163
8164
8164
8162
8160
8159
8159
8159
8158
8158
8158
8157
8155
8155
8156
8157
8159
8159
8157
8156
8156
8158
8160
8161
8162
8163
8165
8165
8164
8163
8163
8162
8159
8159
8160
8161
8162
8164
8167
8170
8171
8173
8173
8173
8173
8173
8176
8178
8177
8174
8170
8166
8163
8160
8160
8160
8162
8165
8169
8174
8177
8177
8173
8168
8166
8164
8165
8167
8169
8171
8173
8176
8181
8185
8185
8182
8179
8175
8172
8171
8170
8170
8170
8170
8170
8171
8171
8173
8175
8177
8178
8178
8179
8179
8180
8181
8182
8181
8179
8177
8177
8177
8176
8174
8172
8172
8172
8173
8173
8172
8173
8174
8175
8177
8177
8175
8173
8172
8172
8171
8171
8173
8175
8176
8178
8179
8181
8182
8183
8185
8188
8188
8189
8192
8193
8194
8194
8194
8193
8193
8194
8196
8200
8201
8199
8197
8197
8200
8206
8210
8211
8208
8204
8201
8199
8199
8199
8200
8201
8201
8197
8191
8186
8183
8179
8177
8175
8174
8174
8174
8174
8175
8175
8175
8174
8173
8173
8172
8172
8171
8172
8172
8172
8172
8173
8173
8174
8176
8179
8181
8180
8179
8178
8179
8188
8205
8228
8258
8295
8339
8392
8450
8510
8568
8622
8664
8690
8699
8690
8666
8628
8575
8515
8453
8392
8338
8291
8253
8223
8203
8188
8180
8174
8169
8166
8162
8158
8152
8148
8145
8141
8138
8136
8137
8137
8138
8139
8137
8135
8132
8129
8128
8129
8133
8138
8144
8147
8148
8145
8139
8134
8131
8131
8132
8133
8134
8137
8140
8141
8140
8139
8138
8139
8141
8146
8150
8152
8151
8149
8150
8151
8151
8153
8154
8153
8151
8150
8149
8150
8150
8151
8152
8151
8152
8153
8156
8157
8159
8160
8161
8163
8166
8168
8169
8169
8168
8169
8172
8177
8180
8183
8184
8183
8182
8181
8182
8184
8185
8187
8187
8187
8187
8191
8194
8195
8195
8197
8199
8201
8202
8203
8202
8201
8202
8203
8205
8205
8205
8206
8207
8209
8209
8208
8210
8213
8215
8214
8214
8213
8213
8212
8208
8204
8201
8201
8201
8202
8198
8189
8182
8177
8173
8171
8170
8169
8169
8168
8166
8162
8158
8156
8156
8156
8157
8161
8164
8167
8168
8168
8165
8161
8158
8156
8154
8154
8154
8153
8152
8152
8150
8149
8150
8153
8155
8154
8152
8152
8154
8156
8157
8159
8160
8160
8160
8159
8159
8161
8163
8163
8162
8162
8161
8158
8156
8157
8160
8162
8163
8162
8163
8163
8163
8163
8164
8166
8166
8166
8164
8162
8160
8159
8158
8159
8162
8169
8178
8182
8182
8179
8175
8172
8170
8169
8167
8164
8162
8163
8164
8164
8163
8163
8164
8167
8169
8171
8171
8171
8171
8171
8171
8170
8169
8170
8173
8176
8176
8174
8172
8172
8173
8173
8172
8169
8166
8166
8169
8171
8171
8170
8170
8171
8173
8175
8175
8174
8172
8169
8166
8165
8168
8172
8173
8174
8173
8174
8174
8172
8170
8170
8173
8176
8180
8182
8184
8186
8187
8186
8183
8181
8180
8180
8181
8183
8185
8187
8189
8191
8192
8190
8189
8190
8193
8195
8198
8199
8200
8201
8201
8200
8200
8200
8200
8203
8207
8207
8203
8195
8187
8181
8176
8173
8171
8170
8169
8167
8166
8166
8166
8167
8168
8168
8167
8166
8166
8166
8167
8168
8171
8170
8164
8161
8164
8168
8169
8170
8169
8170
8173
8179
8190
8207
8229
8260
8300
8348
8401
8458
8517
8573
8621
8660
8683
8691
8681
8652
8604
8544
8481
8418
8362
8313
8270
8234
8205
8184
8174
8168
8162
8154
8147
8144
8142
8140
8138
8137
8139
8144
8147
8147
8143
8142
8141
8139
8134
8128
8124
8124
8124
8125
8127
8130
8131
8132
8133
8135
8137
8137
8135
8136
8140
8144
8145
8145
8145
8144
8146
8149
8151
8152
8152
8151
8149
8147
8147
8147
8148
8147
8147
8146
8145
8146
8149
8151
8153
8155
8157
8160
8163
8164
8164
8163
8162
8161
8161
8161
8162
8164
8165
8166
8166
8168
8168
8169
8171
8174
8176
8178
8179
8180
8182
8184
8185
8187
8188
8189
8191
8193
8195
8198
8201
8202
8203
8204
8207
8210
8211
8209
8206
8203
8202
8202
8204
8206
8207
8206
8205
8206
8208
8209
8210
8210
8210
8209
8207
8204
8201
8199
8197
8194
8188
8185
8182
8177
8174
8174
8174
8173
8171
8170
8170
8171
8172
8175
8176
8175
8171
8167
8163
8161
8161
8160
8156
8154
8155
8156
8156
8156
8154
8154
8155
8156
8156
8157
8157
8155
8152
8150
8149
8149
8150
8152
8154
8154
8154
8154
8155
8157
8157
8157
8157
8157
8157
8158
8160
8161
8160
8159
8159
8161
8163
8165
8166
8167
8167
8167
8165
8162
8161
8161
8161
8163
8164
8165
8167
8168
8168
8168
8169
8169
8168
8169
8171
8174
8177
8181
8182
8179
8174
8171
8168
8168
8168
8169
8171
8171
8170
8169
8169
8169
8168
8168
8169
8170
8170
8171
8172
8173
8173
8173
8171
8170
8169
8169
8168
8168
8168
8169
8169
8169
8169
8168
8169
8172
8175
8176
8175
8173
8170
8169
8170
8172
8175
8176
8177
8178
8179
8178
8177
8177
8176
8175
8175
8175
8177
8179
8180
8180
8179
8180
8181
8183
8185
8185
8186
8189
8192
8194
8196
8195
8195
8194
8196
8202
8208
8211
8214
8216
8219
8219
8215
8211
8205
8201
8199
8197
8195
8190
8184
8180
8175
8172
8169
8166
8166
8167
8166
8166
8165
8166
8166
8166
8166
8167
8167
8167
8168
8172
8178
8180
8180
8178
8174
8170
8166
8165
8167
8172
8175
8179
8187
8205
8228
8256
8291
8336
8387
8440
8494
8550
8605
8648
8675
8684
8676
8652
8611
8557
8497
8437
8380
8330
8285
8247
8216
8194
8179
8171
8166
8162
8159
8157
8156
8155
8153
8150
8146
8144
8145
8147
8145
8141
8137
8135
8135
8136
8138
8137
8135
8135
8138
8143
8147
8151
8153
8151
8147
8141
8136
8133
8133
8135
8136
8138
8139
8139
8137
8136
8136
8138
8139
8140
8142
8144
8145
8146
8146
8147
8149
8150
8150
8151
8151
8154
8157
8158
8157
8157
8159
8162
8162
8162
8162
8165
8167
8169
8170
8170
8169
8169
8170
8170
8171
8173
8175
8179
8182
8184
8185
8186
8189
8193
8195
8197
8198
8198
8197
8194
8193
8195
8197
8198
8199
8200
8199
8200
8201
8203
8204
8206
8207
8209
8209
8208
8208
8210
8212
8214
8214
8215
8215
8213
8212
8210
8209
8207
8204
8200
8194
8189
8187
8188
8192
8195
8197
8196
8191
8184
8178
8171
8166
8163
8164
8165
8165
8165
8166
8165
8163
8161
8159
8158
8157
8156
8155
8156
8157
8158
8158
8159
8159
8160
8162
8163
8163
8162
8160
8160
8161
8161
8162
8162
8164
8165
8164
8161
8159
8158
8157
8155
8157
8159
8160
8160
8161
8162
8164
8165
8166
8165
8165
8164
8164
8166
8167
8167
8165
8164
8164
8164
8163
8164
8166
8167
8167
8166
8165
8165
8167
8169
8172
8176
8181
8184
8185
8185
8182
8177
8173
8171
8171
8170
8170
8171
8171
8171
8171
8170
8169
8170
8170
8171
8174
8176
8177
8176
8175
8173
8172
8172
8173
8172
8171
8171
8172
8174
8176
8178
8178
8179
8178
8178
8176
8174
8173
8173
8172
8171
8172
8175
8177
8178
8178
8178
8179
8180
8181
8182
8184
8185
8184
8182
8179
8177
8176
8177
8178
8178
8178
8179
8181
8182
8184
8186
8188
8192
8194
8198
8200
8200
8199
8199
8199
8200
8202
8204
8204
8205
8208
8209
8210
8209
8208
8205
8203
8199
8195
8190
8187
8187
8186
8183
8179
8175
8173
8173
8174
8175
8175
8174
8172
8170
8169
8169
8169
8169
8168
8166
8165
8165
8164
8164
8166
8170
8174
8176
8176
8177
8180
8188
8201
8216
8236
8265
8301
8342
8386
8430
8475
8528
8584
8633
8668
8686
8687
8670
8635
8585
8530
8473
8412
8356
8306
8262
8227
8201
8182
8172
8164
8159
8157
8155
8153
8151
8149
8147
8144
8142
8139
8138
8137
8136
8136
8138
8142
8144
8143
8143
8141
8138
8136
8136
8137
8139
8138
8137
8136
8135
8134
8135
8136
8137
8138
8139
8139
8141
8142
8142
8143
8143
8142
8141
8142
8145
8146
8146
8146
8149
8152
8155
8157
8158
8157
8156
8155
8155
8157
8157
8156
8154
8153
8153
8155
8160
8167
8172
8172
8170
8167
8165
8166
8166
8167
8167
8170
8175
8180
8182
8182
8181
8179
8177
8178
8181
8185
8188
8191
8194
8196
8198
8200
8199
8197
8198
8202
8205
8206
8208
8210
8213
8213
8213
8212
8211
8210
8209
8207
8205
8204
8204
8205
8207
8210
8211
8209
8205
8202
8200
8198
8196
8191
8185
8183
8183
8184
8183
8182
8181
8179
8178
8178
8176
8173
8171
8173
8174
8174
8172
8168
8167
8166
8165
8165
8167
8168
8168
8166
8164
8162
8159
8158
8155
8153
8152
8151
8151
8152
8153
8154
8156
8158
8159
8161
8162
8161
8161
8162
8163
8164
8163
8161
8158
8157
8156
8156
8157
8158
8158
8159
8159
8158
8158
8157
8157
8159
8162
8165
8167
8168
8168
8167
8167
8166
8167
8167
8167
8169
8170
8169
8168
8171
8176
8180
8180
8176
8172
8168
8164
8162
8162
8163
8163
8164
8166
8167
8167
8167
8168
8171
8174
8175
8175
8176
8177
8177
8175
8173
8172
8172
8172
8171
8169
8169
8170
8172
8175
8177
8179
8183
8184
8179
8172
8168
8168
8169
8171
8172
8173
8173
8172
8172
8173
8174
8173
8172
8169
8168
8168
8170
8172
8175
8179
8182
8183
8184
8185
8184
8180
8179
8181
8183
8184
8184
8183
8184
8185
8188
8193
8195
8197
8197
8197
8197
8198
8198
8200
8200
8200
8199
8199
8200
8201
8200
8199
8197
8196
8196
8196
8195
8192
8187
8182
8179
8176
8174
8174
8174
8172
8169
8166
8163
8162
8162
8164
8165
8166
8165
8164
8166
8168
8169
8169
8167
8165
8165
8166
8168
8171
8175
8182
8193
8208
8229
8256
8292
8337
8386
8439
8500
8565
8623
8668
8693
8698
8685
8656
8614
8562
8507
8449
8392
8340
8292
8250
8218
8195
8179
8169
8160
8152
8145
8142
8143
8143
8142
8141
8139
8138
8138
8139
8138
8135
8133
8132
8131
8130
8130
8133
8136
8137
8137
8136
8135
8134
8133
8132
8132
8133
8135
8135
8135
8136
8137
8139
8140
8142
8144
8145
8148
8151
8152
8152
8151
8151
8153
8156
8155
8150
8145
8142
8142
8144
8146
8149
8152
8154
8153
8153
8154
8157
8159
8159
8160
8160
8159
8158
8160
8163
8166
8169
8170
8168
8166
8168
8172
8175
8179
8181
8183
8182
8179
8178
8180
8182
8184
8185
8187
8189
8192
8194
8198
8200
8203
8205
8208
8210
8209
8206
8204
8204
8207
8208
8208
8206
8205
8204
8204
8206
8210
8212
8212
8210
8209
8208
8205
8202
8199
8197
8194
8191
8188
8186
8184
8181
8177
8174
8174
8175
8175
8177
8179
8179
8177
8174
8169
8165
8162
8162
8163
8162
8161
8160
8160
8161
8160
8158
8155
8151
8149
8148
8148
8150
8152
8154
8155
8156
8154
8153
8154
8156
8156
8157
8157
8158
8158
8156
8154
8153
8153
8153
8155
8155
8154
8152
8151
8153
8156
8157
8155
8156
8159
8162
8162
8162
8161
8161
8162
8164
8166
8168
8169
8168
8169
8170
8169
8166
8165
8163
8162
8161
8162
8164
8165
8165
8165
8166
8166
8167
8168
8169
8170
8171
8171
8170
8168
8167
8167
8168
8170
8173
8173
8171
8167
8164
8163
8165
8168
8170
8172
8175
8176
8177
8180
8180
8180
8179
8176
8174
8172
8170
8169
8168
8169
8170
8170
8169
8170
8170
8172
8172
8173
8174
8174
8175
8175
8176
8178
8183
8186
8185
8182
8179
8176
8174
8173
8174
8176
8177
8179
8180
8181
8182
8182
8183
8185
8188
8189
8191
8190
8189
8189
8192
8194
8197
8200
8202
8202
8202
8203
8202
8200
8199
8199
8199
8200
8199
8197
8194
8194
8195
8193
8187
8182
8179
8176
8173
8172
8172
8173
8174
8172
8169
8166
8165
8165
8166
8167
8166
8166
8168
8171
8173
8172
8173
8173
8171
8170
8171
8174
8181
8197
8222
8252
8287
8329
8375
8421
8470
8525
8581
8630
8668
8691
8695
8677
8636
8581
8520
8455
8392
8335
8288
8247
8214
8188
8172
8165
8162
8160
8160
8159
8155
8151
8146
8144
8142
8140
8138
8138
8140
8141
8140
8138
8137
8136
8136
8138
8140
8140
8139
8137
8136
8136
8136
8135
8135
8134
8135
8138
8140
8141
8141
8140
8139
8139
8140
8141
8142
8143
8145
8146
8146
8147
8150
8154
8159
8161
8161
8160
8158
8156
8154
8152
8150
8149
8150
8152
8152
8154
8156
8160
8164
8168
8171
8172
8173
8174
8174
8173
8171
8169
8167
8167
8168
8170
8174
8176
8177
8177
8177
8178
8179
8179
8180
8182
8188
8195
8200
8202
8201
8200
8201
8202
8204
8205
8206
8207
8208
8208
8208
8208
8207
8206
8206
8205
8204
8205
8206
8206
8205
8205
8204
8205
8208
8209
8208
8206
8202
8199
8198
8198
8196
8193
8187
8185
8185
8186
8185
8180
8173
8167
8163
8160
8160
8160
8161
8161
8161
8162
8163
8163
8163
8163
8164
8168
8171
8172
8170
8170
8171
8171
8170
8166
8162
8159
8158
8158
8160
8161
8161
8160
8157
8153
8151
8150
8150
8153
8159
8161
8158
8154
8152
8151
8152
8154
8157
8159
8161
8162
8161
8161
8161
8162
8165
8167
8169
8169
8168
8166
8165
8164
8164
8167
8169
8169
8168
8167
8169
8172
8174
8177
8178
8179
8179
8180
8182
8181
8179
8176
8175
8176
8175
8174
8172
8171
8168
8165
8162
8162
8164
8166
8169
8170
8171
8171
8171
8171
8172
8171
8171
8172
8175
8176
8177
8177
8176
8174
8174
8175
8175
8175
8178
8181
8181
8181
8181
8183
8187
8192
8192
8188
8183
8179
8174
8170
8167
8165
8165
8167
8168
8168
8169
8171
8173
8175
8177
8179
8182
8184
8187
8189
8190
8190
8191
8194
8198
8202
8204
8202
8200
8200
8202
8204
8205
8204
8206
8208
8210
8211
8209
8205
8201
8199
8199
8199
8198
8199
8201
8201
8198
8193
8188
8184
8178
8172
8169
8168
8169
8169
8168
8166
8164
8162
8162
8163
8164
8163
8162
8162
8162
8164
8166
8166
8167
8168
8169
8171
8173
8178
8188
8205
8226
8252
8283
8319
8364
8416
8473
8535
8594
8642
8676
8694
8696
8680
8649
8600
8541
8477
8415
8360
8311
8268
8232
8205
8188
8178
8171
8166
8163
8161
8158
8155
8153
8152
8150
8148
8145
8142
8140
8138
8136
8135
8135
8136
8137
8139
8140
8138
8135
8133
8132
8133
8134
8134
8134
8135
8137
8139
8142
8145
8146
8147
8149
8149
8147
8144
8141
8140
8141
8142
8144
8147
8149
8150
8148
8145
8144
8144
8145
8146
8148
8151
8156
8161
8164
8164
8163
8162
8160
8157
8155
8155
8157
8159
8163
8166
8167
8166
8167
8167
8167
8168
8174
8180
8185
8188
8187
8185
8182
8180
8179
8179
8181
8185
8188
8192
8193
8196
8200
8204
8206
8205
8204
8203
8202
8202
8203
8205
8206
8207
8206
8204
8204
8203
8202
8202
8202
8202
8203
8205
8209
8213
8215
8214
8211
8205
8200
8196
8194
8194
8194
8194
8194
8189
8184
8178
8175
8173
8172
8171
8170
8168
8165
8163
8163
8163
8164
8164
8164
8162
8159
8156
8155
8154
8154
8154
8155
8157
8160
8163
8163
8162
8161
8160
8160
8162
8167
8170
8168
8165
8162
8161
8159
8155
8151
8149
8150
8152
8154
8155
8155
8155
8155
8155
8155
8155
8155
8155
8157
8160
8162
8163
8165
8165
8165
8167
8171
8174
8173
8170
8168
8168
8169
8171
8174
8174
8172
8169
8167
8167
8169
8170
8170
8170
8171
8172
8172
8171
8169
8169
8170
8170
8171
8172
8174
8173
8172
8170
8167
8164
8163
8162
8164
8166
8168
8169
8171
8172
8173
8173
8172
8169
8166
8167
8169
8170
8172
8173
8174
8175
8174
8171
8173
8179
8182
8181
8178
8177
8175
8173
8170
8168
8169
8169
8170
8170
8171
8173
8177
8182
8187
8190
8189
8187
8183
8180
8179
8179
8179
8181
8183
8185
8187
8189
8190
8190
8189
8192
8194
8196
8199
8203
8208
8211
8210
8208
8206
8205
8204
8204
8203
8201
8198
8194
8188
8186
8185
8183
8181
8179
8177
8177
8179
8180
8180
8179
8180
8181
8178
8172
8168
8165
8162
8159
8156
8155
8157
8158
8159
8159
8160
8162
8164
8165
8169
8175
8183
8196
8215
8238
8267
8300
8340
8388
8438
8490
8544
8600
8649
8680
8693
8686
8662
8625
8572
8511
8449
8388
8334
8288
8248
8217
8195
8181
8174
8169
8164
8159
8155
8151
8149
8148
8145
8141
8137
8136
8137
8135
8135
8136
8136
8135
8134
8135
8135
8134
8134
8133
8132
8131
8130
8130
8132
8135
8137
8138
8138
8137
8137
8138
8140
8141
8145
8149
8151
8152
8155
8158
8157
8153
8149
8147
8144
8140
8138
8138
8140
8142
8145
8147
8148
8148
8147
8144
8146
8150
8153
8154
8155
8157
8159
8161
8162
8164
8165
8167
8170
8173
8173
8171
8169
8170
8173
8176
8180
8183
8184
8185
8188
8188
8187
8186
8185
8186
8189
8195
8199
8200
8200
8198
8197
8196
8197
8199
8202
8204
8206
8210
8212
8213
8211
8209
8206
8205
8205
8205
8206
8208
8208
8206
8203
8201
8197
8196
8195
8194
8192
8191
8189
8188
8187
8185
8184
8182
8180
8177
8173
8170
8167
8166
8165
8165
8164
8163
8161
8160
8161
8161
8159
8156
8156
8157
8160
8162
8162
8160
8157
8153
8152
8150
8150
8151
8153
8153
8151
8150
8150
8151
8153
8155
8157
8158
8157
8156
8157
8158
8159
8159
8158
8159
8161
8164
8167
8168
8169
8166
8163
8161
8158
8153
8150
8151
8155
8157
8156
8156
8158
8158
8158
8160
8163
8165
8166
8167
8166
8165
8165
8164
8163
8163
8165
8168
8172
8173
8173
8173
8173
8173
8172
8170
8170
8171
8172
8174
8176
8177
8178
8178
8176
8173
8171
8171
8172
8172
8170
8168
8167
8167
8167
8166
8167
8169
8171
8171
8172
8173
8175
8176
8177
8177
8177
8177
8176
8177
8178
8179
8178
8176
8172
8168
8166
8164
8163
8165
8168
8171
8173
8173
8172
8173
8175
8178
8179
8177
8174
8173
8175
8177
8179
8180
8181
8183
8186
8187
8187
8188
8189
8192
8196
8202
8204
8204
8202
8201
8201
8203
8206
8207
8206
8202
8199
8198
8197
8198
8198
8198
8197
8196
8194
8189
8186
8183
8181
8179
8177
8174
8173
8173
8174
8175
8175
8174
8172
8172
8174
8175
8175
8175
8176
8178
8177
8173
8169
8169
8170
8170
8168
8167
8168
8170
8174
8181
8195
8214
8238
8270
8310
8358
8413
8470
8525
8577
8624
8660
8680
8683
8669
8637
8589
8530
8468
8408
8354
8308
8268
8233
8207
8189
8178
8169
8164
8161
8159
8157
8153
8149
8148
8146
8145
8145
8145
8144
8141
8138
8135
8134
8135
8138
8139
8140
8138
8138
8138
8137
8136
8136
8135
8136
8138
8141
8143
8144
8144
8145
8144
8143
8143
8143
8143
8147
8152
8157
8159
8159
8159
8158
8157
8156
8155
8153
8154
8154
8152
8150
8148
8147
8147
8148
8148
8150
8152
8154
8155
8155
8157
8160
8163
8165
8167
8169
8172
8175
8176
8175
8172
8171
8174
8177
8180
8182
8184
8187
8190
8192
8193
8193
8195
8196
8197
8200
8204
8206
8208
8208
8206
8204
8203
8204
8206
8206
8207
8207
8206
8207
8208
8208
8207
8207
8207
8207
8207
8207
8206
8207
8208
8209
8208
8206
8203
8200
8196
8193
8190
8189
8190
8189
8189
8187
8185
8182
8180
8177
8174
8173
8172
8170
8167
8164
8162
8162
8162
8162
8162
8163
8164
8164
8165
8163
8162
8161
8160
8159
8161
8161
8160
8158
8158
8159
8160
8161
8161
8161
8161
8161
8160
8160
8160
8161
8159
8157
8156
8157
8159
8159
8159
8159
8160
8162
8164
8165
8166
8166
8165
8164
8165
8166
8166
8166
8165
8165
8165
8165
8167
8170
8172
8174
8175
8177
8179
8178
8178
8175
8173
8171
8171
8171
8172
8173
8173
8171
8168
8167
8168
8172
8175
8176
8176
8174
8171
8169
8169
8171
8172
8173
8174
8174
8175
8175
8176
8177
8176
8174
8172
8171
8170
8172
8173
8173
8173
8173
8173
8172
8173
8174
8177
8178
8178
8176
8175
8174
8174
8175
8175
8175
8175
8174
8175
8175
8175
8176
8176
8176
8176
8175
8174
8174
8174
8174
8176
8178
8181
8182
8182
8182
8183
8185
8187
8188
8192
8194
8196
8197
8198
8197
8198
8198
8197
8196
8196
8196
8197
8199
8202
8205
8208
8210
8211
8211
8209
8207
8206
8206
8207
8207
8204
8201
8197
8195
8192
8187
8181
8176
8173
8174
8178
8184
8190
8193
8188
8180
8173
8167
8161
8158
8157
8157
8158
8160
8162
8163
8162
8163
8165
8166
8168
8169
8173
8181
8195
8212
8233
8262
8298
8342
8389
8438
8493
8552
8609
8654
8683
8697
8694
8674
8635
8583
8522
8457
8396
8342
8297
8260
8230
8206
8188
8177
8169
8163
8159
8155
8152
8150
8148
8148
8149
8150
8150
8148
8144
8139
8136
8136
8137
8139
8143
8150
8157
8161
8160
8155
8148
8139
8131
8125
8122
8122
8123
8125
8127
8130
8134
8137
8138
8139
8140
8141
8142
8144
8145
8145
8145
8146
8148
8149
8149
8149
8149
8148
8148
8150
8151
8150
8150
8149
8148
8149
8153
8157
8159
8161
8162
8164
8166
8169
8174
8180
8183
8182
8179
8176
8173
8171
8170
8170
8172
8176
8180
8185
8189
8193
8195
8196
8197
8199
8199
8198
8197
8198
8198
8199
8201
8203
8203
8201
8199
8200
8202
8204
8205
8205
8205
8206
8207
8208
8208
8211
8214
8216
8217
8215
8211
8205
8197
8191
8188
8187
8187
8188
8190
8190
8187
8185
8184
8184
8183
8181
8179
8177
8174
8172
8170
8168
8166
8165
8164
8163
8163
8163
8163
8164
8164
8162
8161
8160
8159
8160
8161
8163
8163
8161
8160
8159
8159
8160
8164
8166
8169
8174
8177
8175
8168
8160
8155
8153
8152
8152
8154
8157
8159
8159
8158
8159
8160
8160
8159
8159
8159
8158
8159
8161
8165
8169
8171
8172
8173
8172
8169
8165
8162
8160
8160
8161
8164
8166
8167
8167
8168
8170
8173
8174
8173
8170
8167
8167
8167
8168
8170
8170
8169
8166
8164
8164
8166
8169
8170
8171
8175
8179
8182
8182
8183
8183
8180
8174
8169
8167
8167
8168
8167
8166
8166
8166
8166
8166
8167
8169
8171
8173
8173
8173
8173
8177
8180
8182
8183
8182
8181
8179
8176
8173
8172
8172
8174
8176
8176
8176
8175
8176
8178
8178
8176
8172
8169
8168
8168
8167
8168
8169
8172
8174
8175
8174
8174
8175
8177
8181
8187
8191
8192
8190
8187
8185
8184
8185
8187
8190
8194
8198
8202
8204
8206
8205
8204
8202
8202
8203
8204
8206
8207
8206
8203
8197
8193
8189
8188
8187
8186
8185
8185
8186
8187
8184
8178
8173
8172
8174
8174
8172
8170
8168
8167
8166
8166
8167
8170
8171
8171
8171
8172
8171
8170
8169
8168
8167
8166
8167
8169
8171
8175
8181
8195
8213
8237
8267
8305
8352
8405
8461
8522
8580
8631
8672
8697
8706
8696
8667
8619
8559
8494
8429
8370
8321
8279
8242
8214
8193
8180
8173
8168
8163
8158
8154
8150
8148
8148
8152
8158
8161
8158
8152
8145
8140
8136
8133
8130
8128
8126
8127
8130
8133
8135
8134
8132
8130
8127
8127
8129
8133
8135
8136
8136
8135
8134
8134
8135
8137
8139
8140
8143
8147
8147
8144
8139
8138
8142
8145
8147
8149
8150
8152
8155
8158
8160
8161
8163
8164
8163
8159
8157
8156
8157
8158
8160
8162
8163
8162
8161
8161
8162
8163
8164
8165
8166
8168
8171
8173
8175
8177
8177
8180
8184
8187
8193
8198
8201
8202
8201
8200
8200
8199
8198
8196
8196
8196
8197
8200
8202
8201
8200
8200
8201
8203
8204
8202
8201
8201
8202
8203
8204
8204
8204
8204
8204
8204
8205
8206
8205
8202
8200
8195
8192
8190
8191
8190
8187
8183
8181
8179
8177
8174
8172
8170
8168
8165
8162
8161
8161
8162
8163
8163
8162
8161
8160
8161
8163
8164
8164
8164
8164
8163
8159
8156
8154
8152
8152
8152
8153
8154
8153
8153
8153
8154
8158
8163
8166
8162
8153
8149
8152
8153
8154
8154
8155
8157
8159
8159
8159
8161
8164
8168
8169
8168
8165
8160
8156
8155
8153
8153
8154
8155
8156
8157
8159
8160
8161
8162
8163
8165
8166
8166
8163
8161
8162
8166
8168
8170
8171
8172
8173
8173
8172
8172
8172
8173
8174
8174
8174
8173
8172
8171
8170
8171
8171
8172
8173
8173
8173
8172
8172
8173
8175
8177
8178
8181
8183
8183
8180
8175
8172
8171
8172
8172
8172
8171
8168
8166
8166
8168
8170
8170
8168
8166
8166
8166
8166
8165
8165
8167
8169
8171
8172
8172
8172
8172
8171
8172
8174
8175
8176
8177
8178
8179
8180
8183
8188
8193
8195
8194
8193
8193
8192
8193
8193
8192
8192
8192
8194
8198
8203
8206
8205
8202
8202
8204
8206
8206
8206
8205
8201
8194
8186
8181
8180
8179
8178
8177
8176
8176
8176
8175
8173
8170
8167
8164
8163
8164
8166
8168
8170
8172
8172
8170
8169
8169
8169
8168
8167
8167
8168
8170
8174
8179
8187
8197
8208
8225
8250
8283
8322
8368
8420
8473
8528
8580
8625
8656
8672
8672
8655
8622
8578
8524
8465
8406
8351
8303
8259
8222
8193
8175
8167
8164
8162
8159
8155
8150
8146
8144
8143
8143
8144
8144
8142
8141
8138
8136
8136
8137
8137
8135
8133
8133
8136
8139
8138
8136
8134
8132
8132
8132
8134
8135
8137
8140
8141
8142
8142
8142
8142
8141
8142
8144
8146
8147
8148
8148
8150
8151
8152
8152
8153
8153
8153
8152
8151
8152
8153
8155
8158
8159
8162
8164
8165
8164
8163
8162
8161
8161
8162
8163
8162
8162
8165
8168
8170
8171
8172
8173
8174
8174
8175
8177
8180
8183
8185
8187
8189
8193
8197
8200
8200
8200
8200
8199
8197
8197
8199
8201
8202
8202
8202
8205
8208
8209
8209
8207
8206
8205
8204
8204
8204
8204
8205
8207
8207
8207
8206
8205
8203
8200
8199
8200
8202
8203
8202
8200
8197
8193
8188
8183
8180
8177
8175
8171
8168
8168
8166
8163
8161
8160
8160
8162
8163
8163
8161
8161
8164
8166
8166
8163
8159
8155
8154
8155
8158
8159
8159
8162
8168
8173
8174
8170
8166
8162
8159
8158
8158
8158
8156
8154
8152
8150
8150
8150
8152
8154
8156
8157
8159
8161
8161
8160
8159
8158
8157
8156
8156
8157
8159
8159
8160
8162
8164
8165
8167
8169
8172
8174
8174
8173
8171
8172
8172
8169
8167
8165
8164
8164
8166
8168
8170
8172
8173
8173
8172
8172
8174
8176
8176
8176
8175
8174
8173
8174
8174
8173
8172
8172
8172
8173
8173
8174
8175
8178
8180
8181
8181
8180
8179
8177
8175
8172
8170
8168
8167
8167
8168
8168
8168
8168
8168
8169
8170
8171
8172
8174
8175
8177
8179
8180
8180
8180
8177
8173
8171
8171
8173
8174
8174
8174
8176
8178
8178
8178
8178
8178
8178
8179
8182
8184
8185
8185
8187
8190
8193
8194
8196
8198
8198
8198
8198
8198
8198
8201
8205
8208
8209
8209
8207
8206
8205
8204
8203
8202
8200
8199
8198
8196
8192
8187
8184
8181
8178
8177
8177
8179
8179
8178
8179
8178
8174
8171
8169
8165
8164
8164
8166
8168
8168
8168
8167
8168
8169
8170
8171
8172
8173
8172
8171
8172
8177
8186
8201
8221
8244
8270
8305
8351
8398
8447
8504
8564
8619
8664
8689
8697
8686
8658
8617
8567
8507
8444
8384
8332
8287
8248
8218
8196
8181
8174
8170
8167
8162
8157
8154
8153
8153
8150
8146
8142
8140
8137
8136
8136
8136
8135
8134
8134
8134
8134
8134
8132
8132
8133
8132
8132
8131
8132
8134
8136
8136
8136
8136
8138
8139
8139
8140
8142
8143
8144
8144
8144
8144
8145
8147
8149
8150
8151
8152
8155
8158
8159
8159
8158
8157
8156
8155
8157
8159
8161
8162
8162
8161
8161
8163
8166
8167
8166
8164
8162
8162
8162
8165
8168
8172
8175
8177
8180
8182
8185
8185
8184
8181
8177
8175
8176
8181
8184
8185
8185
8186
8188
8191
8194
8196
8197
8198
8201
8203
8204
8204
8204
8206
8208
8210
8211
8210
8208
8207
8209
8211
8213
8214
8215
8214
8211
8208
8205
8203
8203
8200
8195
8188
8184
8182
8180
8181
8182
8182
8180
8178
8176
8174
8173
8174
8174
8172
8168
8163
8160
8160
8162
8164
8165
8165
8164
8163
8161
8160
8160
8163
8165
8167
8168
8168
8164
8158
8153
8150
8148
8148
8149
8151
8153
8154
8156
8158
8159
8159
8160
8160
8160
8160
8159
8157
8157
8158
8159
8160
8162
8164
8166
8166
8167
8168
8168
8167
8165
8165
8165
8164
8163
8163
8163
8164
8166
8166
8166
8166
8165
8163
8162
8161
8163
8166
8169
8170
8170
8171
8171
8171
8172
8173
8176
8180
8180
8178
8174
8171
8172
8174
8175
8173
8169
8167
8165
8165
8164
8165
8165
8165
8166
8168
8169
8169
8169
8170
8171
8173
8175
8175
8175
8174
8174
8174
8175
8174
8173
8173
8175
8175
8172
8169
8167
8165
8165
8168
8172
8175
8177
8176
8173
8169
8165
8165
8167
8168
8169
8170
8172
8174
8175
8175
8177
8179
8184
8192
8198
8202
8203
8200
8196
8191
8189
8193
8196
8198
8197
8194
8189
8186
8188
8195
8199
8202
8203
8203
8201
8200
8200
8201
8199
8197
8195
8193
8189
8185
8180
8176
8173
8172
8170
8168
8168
8168
8169
8169
8169
8168
8166
8165
8165
8166
8167
8168
8168
8169
8169
8169
8168
8167
8168
8169
8170
8171
8173
8175
8178
8184
8196
8213
8237
8266
8303
8348
8400
8458
8516
8573
8627
8668
8691
8695
8683
8656
8612
8554
8490
8428
8372
8323
8276
8234
8206
8192
8183
8176
8171
8165
8159
8154
8148
8143
8142
8144
8145
8144
8143
8141
8138
8135
8132
8129
8127
8125
8124
8127
8130
8131
8130
8131
8131
8133
8135
8137
8137
8136
8135
8136
8137
8137
8138
8139
8141
8141
8141
8141
8142
8142
8142
8141
8141
8142
8143
8145
8147
8149
8151
8151
8150
8149
8148
8150
8152
8154
8156
8156
8157
8159
8161
8163
8166
8168
8170
8171
8170
8169
8169
8169
8167
8166
8167
8169
8169
8170
8171
8174
8179
8186
8193
8196
8195
8194
8192
8192
8192
8191
8191
8194
8197
8201
8206
8214
8220
8221
8218
8212
8207
8204
8201
8200
8201
8201
8198
8195
8193
8193
8194
8195
8196
8197
8197
8198
8198
8196
8194
8192
8190
8190
8192
8194
8196
8196
8195
8189
8182
8180
8181
8183
8181
8177
8169
8163
8158
8156
8155
8155
8154
8154
8155
8157
8160
8163
8163
8161
8158
8156
8156
8157
8159
8162
8163
8162
8160
8158
8157
8154
8151
8150
8152
8154
8157
8160
8162
8165
8166
8165
8162
8159
8157
8156
8154
8152
8150
8150
8151
8152
8154
8157
8159
8161
8163
8163
8164
8166
8168
8170
8169
8166
8162
8158
8156
8156
8156
8155
8154
8154
8156
8160
8167
8172
8174
8172
8170
8168
8168
8170
8174
8176
8176
8174
8172
8169
8166
8165
8165
8167
8169
8170
8169
8168
8168
8169
8170
8171
8174
8177
8179
8180
8181
8182
8181
8181
8181
8182
8181
8178
8173
8168
8164
8162
8160
8160
8161
8161
8161
8164
8169
8174
8177
8180
8183
8184
8182
8177
8172
8168
8166
8165
8164
8165
8167
8169
8171
8175
8177
8178
8179
8179
8177
8172
8171
8174
8178
8182
8184
8185
8185
8185
8187
8190
8194
8196
8198
8203
8209
8215
8220
8221
8218
8214
8208
8202
8197
8195
8196
8195
8190
8187
8187
8186
8183
8180
8177
8178
8181
8183
8182
8178
8175
8173
8171
8170
8168
8166
8165
8165
8164
8163
8164
8168
8170
8168
8165
8163
8162
8162
8164
8165
8166
8166
8168
8173
8181
8195
8214
8236
8262
8295
8339
8391
8446
8504
8564
8617
8658
8683
8692
8685
8661
8622
8566
8501
8432
8368
8313
8268
8232
8205
8185
8173
8165
8159
8157
8155
8155
8154
8153
8151
8150
8148
8143
8140
8139
8137
8135
8134
8134
8134
8133
8131
8130
8132
8135
8137
8137
8137
8137
8138
8138
8138
8138
8138
8139
8142
8146
8149
8150
8151
8152
8150
8147
8144
8144
8144
8144
8145
8148
8150
8150
8148
8146
8145
8144
8146
8149
8153
8157
8161
8165
8166
8167
8166
8164
8161
8157
8155
8156
8157
8158
8160
8162
8163
8164
8164
8165
8167
8171
8177
8181
8183
8183
8184
8184
8184
8183
8184
8186
8188
8189
8189
8190
8193
8196
8199
8201
8202
8202
8202
8202
8203
8203
8204
8205
8205
8206
8207
8206
8207
8208
8209
8210
8211
8212
8212
8209
8204
8200
8197
8194
8192
8192
8192
8193
8194
8194
8192
8188
8185
8184
8184
8183
8179
8174
8171
8168
8167
8167
8169
8170
8170
8168
8167
8167
8167
8167
8166
8162
8158
8157
8157
8158
8159
8159
8157
8156
8157
8159
8160
8161
8160
8159
8157
8155
8155
8154
8154
8153
8154
8156
8158
8158
8158
8157
8157
8158
8159
8160
8162
8164
8165
8164
8164
8163
8162
8161
8162
8163
8163
8163
8162
8163
8165
8168
8169
8170
8171
8172
8171
8170
8170
8169
8167
8167
8170
8173
8175
8173
8169
8166
8165
8166
8167
8167
8168
8169
8170
8171
8173
8174
8174
8173
8172
8172
8173
8174
8176
8178
8181
8182
8182
8183
8185
8185
8184
8183
8181
8180
8179
8178
8177
8176
8173
8171
8168
8167
8167
8166
8167
8170
8172
8172
8170
8169
8168
8168
8169
8169
8170
8170
8171
8173
8175
8176
8176
8175
8175
8175
8175
8176
8176
8174
8172
8172
8175
8181
8186
8189
8192
8192
8190
8191
8192
8193
8196
8200
8202
8203
8201
8198
8196
8197
8199
8200
8201
8203
8203
8202
8202
8205
8209
8212
8212
8208
8204
8200
8199
8199
8199
8199
8194
8186
8180
8176
8173
8173
8174
8175
8172
8169
8167
8165
8165
8167
8170
8173
8176
8178
8177
8171
8165
8162
8160
8160
8161
8163
8166
8170
8176
8185
8198
8216
8238
8266
8302
8349
8399
8450
8505
8563
8619
8664
8694
8705
8696
8670
8626
8574
8518
8455
8393
8337
8289
8249
8219
8197
8182
8173
8164
8158
8154
8151
8149
8147
8144
8143
8142
8141
8141
8140
8140
8139
8138
8137
8135
8136
8138
8139
8138
8138
8137
8138
8140
8140
8138
8140
8145
8152
8159
8161
8157
8151
8147
8144
8141
8140
8142
8144
8144
8143
8143
8143
8142
8141
8142
8146
8148
8149
8150
8150
8150
8150
8149
8149
8150
8150
8150
8151
8154
8156
8157
8159
8162
8165
8166
8166
8167
8167
8167
8167
8168
8169
8171
8172
8173
8175
8178
8182
8184
8184
8184
8184
8184
8186
8190
8194
8196
8200
8203
8205
8207
8206
8204
8201
8201
8202
8203
8204
8204
8205
8205
8205
8206
8207
8209
8211
8211
8209
8207
8205
8204
8204
8206
8210
8215
8220
8222
8218
8212
8206
8200
8194
8189
8184
8179
8176
8174
8174
8173
8172
8171
8170
8168
8167
8165
8163
8162
8160
8158
8157
8160
8163
8165
8165
8166
8166
8165
8163
8160
8158
8156
8154
8153
8154
8154
8155
8155
8155
8154
8155
8158
8161
8162
8162
8161
8160
8160
8161
8163
8164
8165
8164
8163
8162
8162
8163
8163
8163
8162
8160
8160
8159
8159
8160
8160
8163
8166
8168
8168
8167
8167
8166
8165
8164
8165
8165
8166
8167
8171
8175
8178
8179
8180
8181
8181
8180
8178
8176
8174
8173
8172
8171
8173
8174
8176
8175
8172
8170
8168
8167
8167
8168
8169
8169
8169
8169
8168
8168
8167
8166
8164
8165
8168
8170
8173
8175
8176
8177
8177
8177
8178
8182
8184
8182
8179
8178
8177
8176
8175
8174
8173
8173
8173
8175
8176
8174
8171
8169
8169
8170
8170
8170
8169
8169
8169
8171
8173
8175
8176
8177
8178
8179
8181
8182
8183
8185
8187
8187
8186
8188
8192
8195
8197
8199
8202
8204
8205
8203
8202
8200
8200
8201
8204
8206
8206
8204
8201
8197
8195
8196
8196
8197
8198
8199
8198
8195
8190
8186
8182
8178
8174
8173
8176
8178
8180
8180
8177
8172
8169
8168
8169
8171
8171
8170
8171
8171
8170
8169
8168
8168
8169
8169
8171
8173
8174
8174
8174
8177
8184
8198
8214
8236
8264
8302
8350
8403
8454
8505
8562
8616
8661
8692
8706
8700
8673
8626
8564
8501
8440
8381
8329
8284
8248
8219
8197
8181
8173
8168
8165
8161
8158
8155
8153
8152
8152
8151
8148
8142
8136
8132
8128
8125
8124
8125
8129
8133
8134
8137
8138
8136
8133
8130
8129
8128
8127
8127
8128
8131
8133
8134
8135
8136
8137
8140
8143
8145
8144
8143
8142
8143
8146
8147
8145
8145
8150
8154
8157
8157
8155
8152
8150
8150
8149
8148
8150
8153
8156
8158
8160
8164
8169
8172
8173
8172
8171
8171
8170
8170
8169
8166
8164
8166
8171
8177
8181
8182
8181
8178
8177
8180
8184
8187
8191
8194
8194
8192
8188
8186
8186
8187
8190
8193
8195
8197
8198
8198
8201
8203
8202
8201
8202
8203
8206
8208
8210
8208
8206
8205
8203
8201
8201
8201
8199
8199
8200
8202
8204
8204
8201
8197
8192
8188
8186
8184
8183
8182
8180
8178
8176
8175
8175
8177
8179
8176
8168
8160
8156
8155
8155
8156
8159
8161
8162
8164
8166
8167
8167
8165
8164
8163
8162
8161
8159
8157
8154
8152
8150
8148
8147
8147
8151
8154
8154
8152
8152
8153
8153
8153
8153
8152
8151
8150
8152
8154
8155
8155
8158
8162
8163
8163
8162
8162
8162
8163
8164
8164
8165
8166
8168
8170
8172
8174
8177
8177
8173
8168
8162
8159
8158
8159
8162
8165
8168
8170
8171
8171
8169
8167
8166
8167
8169
8171
8169
8167
8168
8171
8173
8174
8175
8175
8175
8175
8174
8173
8175
8179
8181
8180
8178
8175
8172
8171
8173
8175
8174
8171
8168
8166
8164
8163
8165
8167
8169
8171
8173
8174
8175
8175
8175
8176
8176
8176
8178
8181
8183
8182
8181
8178
8177
8177
8177
8176
8175
8173
8171
8171
8172
8175
8177
8177
8176
8175
8174
8174
8176
8179
8183
8186
8189
8192
8195
8197
8199
8199
8200
8201
8202
8204
8205
8203
8201
8199
8197
8197
8197
8198
8199
8198
8198
8199
8198
8196
8193
8189
8186
8182
8179
8178
8177
8175
8170
8165
8162
8162
8162
8163
8164
8167
8169
8169
8168
8168
8169
8170
8171
8171
8169
8166
8166
8167
8170
8173
8179
8190
8208
8230
8258
8293
8335
8384
8438
8498
8560
8617
8662
8692
8703
8695
8668
8624
8566
8504
8438
8373
8317
8270
8232
8203
8180
8165
8157
8152
8149
8148
8148
8150
8151
8149
8147
8146
8146
8147
8148
8145
8138
8135
8137
8137
8135
8134
8134
8133
8133
8132
8133
8136
8137
8138
8138
8138
8138
8141
8143
8145
8146
8147
8148
8147
8144
8141
8138
8140
8142
8145
8146
8148
8151
8155
8157
8156
8153
8150
8149
8148
8149
8148
8148
8149
8150
8150
8151
8152
8155
8161
8169
8175
8176
8173
8168
8166
8167
8169
8171
8173
8173
8171
8170
8170
8170
8172
8175
8177
8178
8179
8181
8186
8190
8193
8195
8198
8199
8201
8202
8203
8202
8201
8202
8202
8201
8200
8200
8201
8202
8203
8206
8210
8215
8219
8219
8217
8215
8211
8208
8205
8201
8199
8199
8200
8201
8201
8200
8196
8193
8189
8187
8186
8184
8183
8182
8180
8178
8177
8175
8173
8172
8170
8168
8168
8169
8170
8170
8170
8168
8165
8159
8157
8158
8159
8159
8157
8157
8158
8160
8164
8167
8169
8169
8166
8163
8161
8161
8159
8159
8159
8158
8156
8153
8151
8149
8149
8151
8153
8157
8160
8162
8164
8165
8164
8160
8157
8156
8157
8158
8159
8160
8159
8158
8157
8158
8159
8160
8162
8164
8165
8166
8167
8169
8172
8173
8173
8172
8171
8170
8169
8169
8168
8168
8170
8172
8173
8175
8177
8178
8176
8174
8173
8175
8177
8177
8176
8176
8172
8169
8170
8172
8173
8172
8171
8171
8171
8170
8169
8169
8168
8168
8170
8172
8174
8175
8178
8180
8182
8182
8180
8179
8178
8178
8179
8179
8179
8180
8180
8179
8177
8174
8172
8171
8172
8173
8174
8175
8175
8174
8172
8172
8173
8174
8173
8173
8175
8178
8182
8186
8191
8193
8193
8194
8193
8188
8185
8183
8184
8187
8188
8189
8189
8189
8190
8193
8196
8199
8203
8204
8204
8205
8205
8204
8203
8201
8200
8198
8196
8193
8192
8192
8192
8189
8186
8185
8185
8182
8179
8179
8182
8184
8183
8178
8174
8171
8172
8176
8179
8179
8178
8177
8174
8172
8171
8172
8173
8172
8169
8166
8164
8166
8174
8187
8205
8227
8253
8287
8330
8380
8435
8491
8547
8602
8648
8679
8694
8693
8671
8629
8572
8508
8445
8388
8336
8290
8250
8219
8197
8181
8173
8167
8165
8163
8161
8158
8155
8154
8152
8150
8147
8143
8140
8137
8135
8134
8133
8133
8133
8134
8135
8135
8135
8135
8136
8138
8140
8140
8141
8143
8144
8146
8150
8153
8154
8153
8151
8148
8144
8141
8140
8141
8146
8150
8150
8149
8147
8146
8146
8148
8150
8150
8150
8149
8147
8148
8148
8149
8150
8152
8155
8159
8164
8167
8167
8165
8162
8160
8162
8164
8166
8169
8172
8173
8172
8170
8168
8168
8169
8170
8172
8174
8176
8179
8181
8183
8184
8185
8187
8188
8190
8194
8196
8198
8199
8200
8202
8204
8204
8204
8204
8204
8204
8205
8205
8206
8206
8206
8207
8210
8213
8214
8213
8211
8209
8208
8208
8207
8206
8206
8206
8204
8201
8197
8194
8192
8188
8186
8187
8187
8185
8182
8179
8176
8174
8170
8167
8164
8162
8161
8161
8162
8162
8160
8158
8156
8153
8150
8150
8153
8157
8159
8160
8162
8164
8164
8162
8159
8157
8157
8158
8158
8157
8157
8157
8159
8160
8160
8158
8156
8156
8156
8156
8158
8159
8161
8163
8165
8168
8171
8172
8171
8168
8165
8162
8160
8157
8155
8156
8159
8162
8164
8166
8166
8167
8167
8168
8167
8165
8167
8171
8175
8177
8176
8173
8172
8172
8170
8167
8168
8169
8170
8170
8170
8168
8167
8166
8165
8165
8165
8167
8169
8171
8173
8174
8174
8173
8174
8174
8174
8173
8172
8170
8169
8170
8173
8175
8175
8174
8173
8173
8174
8175
8178
8180
8177
8173
8171
8170
8168
8168
8168
8168
8169
8170
8171
8174
8177
8179
8179
8180
8182
8184
8184
8182
8178
8175
8173
8172
8171
8170
8170
8172
8175
8178
8183
8185
8185
8186
8186
8187
8188
8193
8198
8204
8208
8208
8202
8196
8194
8195
8199
8206
8214
8217
8215
8212
8208
8204
8199
8194
8192
8192
8189
8186
8182
8179
8179
8180
8182
8181
8178
8173
8169
8167
8166
8167
8167
8167
8168
8170
8172
8172
8170
8169
8168
8168
8169
8170
8170
8169
8168
8167
8167
8169
8173
8181
8192
8207
8226
8249
8279
8316
8360
8409
8462
8520
8577
8628
8666
8688
8693
8681
8651
8603
8545
8483
8421
8366
8318
8276
8240
8211
8188
8175
8169
8167
8167
8164
8159
8152
8146
8142
8140
8138
8136
8135
8134
8133
8134
8138
8142
8144
8144
8144
8148
8149
8147
8142
8137
8135
8133
8131
8128
8127
8128
8131
8133
8135
8137
8137
8137
8137
8137
8139
8142
8144
8145
8145
8144
8143
8142
8144
8148
8152
8153
8154
8152
8150
8147
8144
8144
8145
8146
8148
8152
8154
8156
8156
8159
8162
8164
8165
8166
8166
8167
8168
8171
8174
8177
8178
8177
8177
8176
8174
8172
8171
8171
8172
8174
8178
8182
8188
8192
8192
8192
8194
8198
8202
8204
8204
8203
8202
8201
8201
8201
8204
8207
8207
8206
8204
8206
8210
8212
8212
8210
8207
8204
8201
8199
8200
8201
8202
8201
8198
8194
8190
8187
8185
8184
8183
8182
8181
8180
8178
8176
8177
8181
8183
8181
8175
8167
8162
8160
8159
8158
8155
8152
8151
8154
8155
8154
8152
8152
8152
8152
8150
8149
8151
8154
8157
8160
8163
8163
8160
8158
8159
8162
8165
8166
8164
8161
8159
8157
8155
8153
8153
8158
8164
8168
8169
8167
8162
8155
8149
8146
8144
8145
8147
8149
8151
8152
8154
8156
8158
8159
8160
8161
8162
8163
8162
8161
8160
8161
8163
8165
8166
8166
8166
8166
8166
8167
8168
8167
8167
8167
8168
8171
8173
8175
8175
8175
8176
8175
8174
8174
8175
8176
8177
8179
8182
8187
8191
8189
8184
8177
8171
8168
8167
8166
8165
8165
8166
8167
8167
8167
8169
8173
8177
8178
8176
8173
8172
8170
8168
8167
8165
8164
8163
8163
8162
8161
8161
8163
8165
8167
8169
8170
8171
8172
8173
8174
8174
8175
8175
8174
8172
8174
8178
8182
8185
8187
8189
8191
8190
8192
8195
8200
8207
8214
8220
8225
8230
8230
8226
8219
8208
8196
8187
8183
8181
8179
8178
8177
8178
8179
8181
8183
8185
8186
8185
8181
8177
8172
8168
8165
8166
8168
8169
8169
8169
8169
8170
8171
8173
8175
8175
8171
8166
8162
8161
8162
8164
8163
8162
8163
8164
8165
8168
8173
8181
8194
8212
8235
8265
8303
8351
8405
8462
8519
8575
8626
8665
8685
8688
8672
8641
8595
8538
8478
8418
8362
8313
8271
8236
8208
8187
8175
8169
8165
8159
8153
8149
8145
8142
8142
8142
8143
8144
8144
8144
8143
8142
8141
8139
8138
8137
8135
8134
8134
8133
8131
8130
8132
8135
8139
8141
8141
8140
8139
8138
8137
8136
8134
8134
8136
8139
8141
8142
8143
8143
8143
8144
8146
8147
8145
8142
8143
8147
8151
8155
8159
8162
8163
8160
8157
8156
8157
8158
8161
8162
8161
8159
8156
8155
8156
8159
8161
8162
8164
8167
8169
8171
8172
8172
8171
8171
8173
8174
8175
8177
8181
8185
8188
8193
8197
8200
8201
8203
8206
8209
8210
8208
8204
8200
8199
8199
8199
8201
8203
8203
8203
8204
8206
8206
8205
8202
8200
8198
8196
8197
8198
8199
8200
8199
8197
8196
8195
8194
8194
8194
8194
8193
8189
8186
8185
8185
8184
8183
8180
8178
8175
8172
8169
8168
8166
8164
8164
8166
8172
8178
8178
8173
8168
8163
8160
8159
8157
8157
8158
8159
8157
8155
8152
8150
8150
8150
8151
8152
8152
8153
8154
8155
8155
8154
8154
8154
8156
8157
8159
8160
8160
8160
8159
8159
8160
8162
8165
8166
8166
8163
8161
8161
8162
8167
8171
8173
8172
8171
8169
8167
8166
8164
8163
8164
8166
8170
8172
8170
8167
8165
8164
8165
8166
8167
8168
8169
8171
8172
8172
8172
8175
8176
8176
8175
8175
8177
8179
8181
8181
8178
8176
8175
8176
8174
8171
8169
8168
8167
8168
8170
8173
8175
8174
8173
8170
8168
8166
8167
8169
8172
8173
8172
8170
8169
8170
8171
8171
8171
8171
8171
8171
8172
8172
8173
8173
8172
8173
8175
8177
8178
8178
8177
8176
8174
8172
8172
8172
8175
8178
8181
8183
8184
8183
8182
8182
8183
8185
8188
8192
8194
8195
8196
8196
8199
8203
8205
8206
8206
8205
8204
8205
8206
8206
8205
8206
8207
8209
8209
8206
8201
8196
8193
8189
8186
8183
8180
8179
8178
8176
8175
8176
8177
8178
8179
8181
8184
8184
8181
8176
8170
8164
8159
8157
8155
8155
8158
8162
8165
8166
8165
8164
8165
8168
8175
8186
8203
8223
8247
8273
8308
8353
8405
8462
8525
8587
8642
8681
8703
8708
8694
8661
8611
8551
8486
8421
8362
8311
8269
8235
8208
8188
8176
8168
8164
8163
8163
8161
8158
8154
8151
8148
8145
8144
8142
8140
8137
8134
8132
8131
8130
8129
8130
8132
8134
8135
8136
8136
8137
8139
8141
8142
8141
8140
8139
8142
8147
8150
8152
8151
8149
8145
8143
8143
8144
8145
8144
8144
8145
8145
8144
8143
8143
8143
8143
8144
8146
8150
8153
8155
8155
8154
8153
8155
8156
8157
8157
8158
8160
8163
8165
8167
8170
8171
8172
8172
8172
8173
8174
8173
8173
8173
8175
8177
8177
8177
8180
8184
8187
8187
8187
8187
8188
8192
8196
8199
8201
8202
8202
8201
8201
8201
8203
8205
8205
8206
8208
8208
8206
8204
8204
8205
8205
8205
8205
8203
8200
8200
8201
8203
8204
8204
8203
8200
8197
8192
8187
8185
8183
8181
8180
8179
8179
8180
8180
8179
8179
8177
8174
8170
8167
8163
8160
8159
8161
8163
8163
8163
8164
8164
8165
8165
8164
8161
8156
8150
8148
8149
8152
8154
8156
8160
8161
8161
8159
8158
8157
8156
8156
8155
8154
8153
8152
8152
8152
8153
8153
8154
8155
8156
8158
8160
8161
8163
8166
8166
8166
8164
8162
8161
8161
8162
8163
8164
8165
8166
8166
8165
8164
8163
8164
8165
8166
8166
8167
8167
8166
8165
8165
8167
8171
8175
8178
8180
8179
8176
8173
8170
8167
8167
8166
8167
8167
8167
8169
8170
8171
8172
8172
8173
8174
8176
8178
8178
8175
8172
8171
8171
8170
8169
8171
8172
8170
8170
8170
8172
8173
8173
8171
8169
8167
8167
8167
8168
8169
8170
8171
8171
8172
8172
8173
8173
8173
8173
8173
8173
8173
8171
8170
8169
8168
8168
8169
8170
8172
8173
8176
8180
8181
8179
8177
8178
8181
8185
8188
8188
8185
8183
8181
8181
8183
8185
8188
8192
8195
8197
8198
8198
8198
8197
8196
8197
8201
8203
8203
8202
8200
8199
8198
8199
8199
8197
8195
8189
8184
8181
8181
8182
8181
8179
8177
8175
8176
8176
8176
8174
8172
8171
8171
8169
8165
8165
8167
8170
8172
8172
8172
8171
8171
8170
8171
8172
8171
8169
8170
8174
8180
8193
8210
8233
8262
8298
8346
8401
8458
8520
8582
8637
8677
8699
8704
8692
8662
8615
8555
8489
8424
8364
8313
8271
8237
8210
8188
8176
8170
8165
8160
8156
8155
8155
8156
8155
8153
8148
8143
8138
8134
8131
8131
8133
8135
8135
8134
8131
8129
8128
8128
8130
8132
8133
8135
8135
8133
8131
8128
8124
8124
8129
8133
8136
8138
8141
8144
8148
8152
8153
8152
8149
8146
8144
8143
8143
8143
8145
8147
8148
8149
8147
8145
8146
8149
8151
8152
8151
8151
8153
8155
8158
8158
8159
8159
8160
8163
8166
8166
8165
8164
8163
8163
8166
8170
8174
8177
8178
8178
8179
8180
8180
8180
8181
8183
8187
8189
8189
8188
8188
8194
8200
8205
8207
8207
8205
8203
8201
8200
8200
8200
8201
8202
8202
8203
8204
8204
8204
8203
8203
8204
8205
8204
8205
8207
8211
8212
8209
8204
8199
8194
8190
8189
8188
8187
8183
8179
8176
8174
8172
8172
8172
8172
8172
8173
8173
8172
8172
8171
8172
8172
8172
8170
8166
8162
8158
8154
8150
8147
8146
8145
8145
8145
8146
8147
8148
8150
8151
8152
8153
8156
8159
8159
8156
8154
8153
8153
8153
8153
8152
8151
8150
8151
8152
8154
8155
8157
8159
8160
8161
8161
8161
8160
8159
8157
8158
8159
8160
8161
8162
8164
8165
8168
8170
8169
8168
8166
8165
8167
8168
8168
8167
8166
8165
8166
8167
8168
8170
8171
8172
8174
8175
8175
8175
8175
8173
8170
8169
8170
8170
8168
8166
8167
8171
8174
8172
8169
8167
8167
8170
8173
8175
8176
8176
8175
8173
8171
8170
8168
8168
8168
8170
8174
8178
8181
8182
8182
8178
8174
8172
8172
8172
8171
8171
8169
8169
8169
8169
8171
8172
8171
8169
8168
8168
8169
8170
8172
8172
8173
8173
8175
8177
8179
8181
8182
8182
8182
8181
8182
8186
8189
8191
8192
8192
8192
8195
8198
8199
8200
8202
8205
8208
8210
8211
8210
8208
8206
8204
8203
8205
8207
8206
8202
8199
8195
8192
8189
8185
8180
8175
8171
8170
8171
8171
8172
8172
8172
8171
8170
8169
8169
8170
8169
8168
8166
8166
8166
8167
8168
8167
8166
8168
8171
8173
8173
8171
8172
8180
8197
8216
8240
8266
8296
8338
8388
8441
8497
8554
8607
8648
8673
8681
8674
8648
8605
8548
8487
8424
8365
8312
8266
8230
8205
8185
8173
8166
8161
8158
8155
8152
8148
8145
8144
8144
8145
8147
8147
8145
8143
8141
8141
8142
8143
8142
8141
8140
8142
8148
8153
8154
8150
8143
8136
8132
8129
8129
8130
8132
8133
8134
8134
8134
8134
8134
8135
8137
8140
8143
8146
8148
8148
8148
8147
8149
8152
8155
8156
8156
8156
8156
8155
8155
8153
8152
8152
8153
8156
8158
8159
8160
8163
8165
8166
8168
8168
8169
8171
8172
8173
8175
8179
8182
8183
8181
8178
8178
8179
8180
8181
8183
8187
8195
8200
8202
8202
8201
8199
8197
8195
8192
8189
8191
8193
8195
8198
8200
8201
8200
8198
8198
8198
8197
8197
8198
8199
8200
8202
8203
8205
8207
8208
8208
8207
8204
8202
8200
8201
8203
8201
8196
8188
8185
8185
8186
8186
8185
8183
8183
8183
8183
8182
8178
8174
8169
8165
8162
8159
8156
8153
8152
8153
8156
8158
8157
8157
8157
8159
8160
8160
8159
8156
8154
8153
8151
8150
8151
8152
8154
8153
8153
8153
8155
8158
8161
8161
8160
8159
8158
8158
8160
8162
8161
8161
8159
8157
8154
8154
8155
8156
8157
8158
8160
8161
8160
8159
8160
8163
8165
8165
8164
8164
8164
8164
8165
8167
8170
8173
8175
8177
8179
8178
8177
8175
8172
8170
8169
8169
8169
8171
8172
8173
8175
8175
8175
8172
8171
8171
8171
8171
8172
8172
8172
8171
8170
8170
8172
8173
8175
8176
8176
8177
8175
8173
8172
8172
8172
8172
8173
8175
8176
8176
8175
8174
8173
8173
8173
8173
8173
8174
8176
8176
8177
8178
8182
8185
8186
8184
8185
8185
8182
8178
8177
8182
8189
8196
8198
8195
8186
8177
8172
8172
8174
8178
8182
8181
8177
8172
8169
8170
8172
8177
8183
8187
8189
8192
8194
8196
8196
8195
8194
8193
8193
8195
8198
8203
8205
8204
8202
8200
8199
8199
8198
8199
8199
8199
8197
8193
8188
8186
8184
8183
8181
8180
8180
8178
8175
8174
8174
8173
8173
8172
8173
8175
8176
8176
8175
8174
8174
8174
8175
8176
8176
8176
8176
8176
8178
8182
8187
8195
8206
8219
8237
8261
8292
8334
8385
8440
8497
8557
8615
8665
8696
8707
8698
8671
8629
8573
8510
8446
8386
8334
8290
8253
8225
8201
8182
8171
8165
8160
8156
8153
8151
8150
8148
8145
8142
8140
8138
8136
8137
8139
8140
8140
8138
8137
8138
8137
8137
8137
8137
8137
8138
8139
8140
8142
8143
8142
8140
8140
8139
8140
8142
8144
8145
8146
8146
8146
8145
8145
8146
8147
8148
8148
8148
8149
8151
8155
8158
8158
8156
8154
8153
8153
8153
8153
8153
8155
8157
8159
8161
8163
8162
8161
8161
8164
8167
8169
8170
8172
8173
8176
8179
8181
8182
8181
8181
8183
8183
8183
8184
8184
8185
8186
8187
8188
8189
8192
8193
8194
8196
8199
8203
8207
8208
8207
8205
8205
8204
8204
8204
8203
8202
8201
8201
8202
8203
8204
8205
8205
8206
8206
8205
8203
8202
8201
8200
8199
8197
8196
8196
8196
8195
8192
8189
8188
8187
8185
8182
8180
8178
8176
8176
8176
8176
8177
8178
8177
8173
8168
8165
8165
8166
8166
8166
8166
8167
8168
8166
8162
8159
8158
8159
8160
8160
8161
8163
8164
8166
8169
8172
8171
8169
8165
8162
8161
8160
8159
8158
8155
8153
8152
8152
8152
8152
8154
8156
8158
8160
8161
8161
8162
8164
8166
8167
8167
8165
8164
8163
8164
8164
8165
8166
8168
8169
8170
8170
8172
8173
8174
8175
8175
8174
8173
8172
8172
8174
8176
8177
8179
8184
8189
8193
8190
8183
8177
8174
8178
8188
8200
8208
8207
8198
8185
8173
8163
8158
8156
8155
8157
8160
8164
8166
8168
8169
8171
8173
8174
8174
8173
8172
8172
8173
8174
8173
8172
8171
8170
8171
8173
8176
8179
8180
8179
8178
8176
8175
8176
8177
8178
8178
8177
8176
8175
8175
8176
8178
8179
8181
8182
8181
8181
8182
8186
8190
8193
8193
8193
8193
8196
8201
8207
8210
8207
8200
8195
8194
8195
8198
8200
8199
8197
8196
8198
8201
8201
8202
8203
8205
8205
8204
8201
8198
8194
8189
8186
8183
8180
8178
8176
8175
8176
8175
8175
8175
8175
8174
8173
8171
8170
8169
8169
8170
8172
8174
8175
8176
8177
8177
8175
8172
8170
8169
8170
8171
8174
8180
8187
8199
8214
8234
8259
8289
8328
8376
8432
8491
8552
8611
8659
8688
8699
8698
8688
8660
8609
8546
8479
8413
8354
8303
8260
8225
8201
8184
8175
8170
8167
8165
8163
8158
8154
8150
8147
8144
8142
8142
8143
8143
8141
8137
8132
8130
8130
8132
8134
8137
8143
8149
8151
8151
8150
8149
8147
8142
8135
8126
8121
8119
8119
8120
8122
8125
8128
8131
8133
8134
8135
8136
8139
8141
8143
8143
8143
8144
8146
8146
8147
8147
8151
8155
8158
8158
8157
8157
8158
8157
8157
8157
8157
8157
8157
8158
8159
8161
8164
8166
8169
8172
8176
8178
8179
8178
8178
8178
8179
8179
8179
8179
8177
8178
8181
8184
8188
8194
8199
8203
8207
8209
8211
8212
8212
8210
8209
8209
8211
8213
8211
8207
8203
8201
8201
8201
8199
8197
8197
8200
8203
8204
8204
8204
8202
8200
8196
8191
8186
8182
8179
8180
8182
8184
8183
8181
8178
8176
8174
8173
8172
8172
8173
8173
8173
8172
8170
8165
8161
8159
8160
8161
8163
8166
8169
8171
8173
8172
8169
8163
8156
8150
8147
8145
8144
8146
8149
8151
8152
8152
8152
8151
8150
8150
8154
8157
8157
8155
8155
8156
8156
8155
8156
8157
8159
8163
8165
8165
8164
8163
8161
8159
8157
8155
8153
8152
8151
8151
8153
8156
8160
8164
8167
8169
8169
8168
8167
8168
8169
8170
8171
8172
8170
8168
8166
8165
8165
8163
8161
8161
8162
8163
8164
8164
8164
8165
8166
8164
8166
8171
8173
8173
8173
8174
8176
8178
8180
8179
8176
8174
8171
8169
8168
8168
8169
8169
8170
8173
8175
8175
8173
8173
8175
8177
8179
8180
8178
8175
8172
8170
8168
8167
8165
8164
8164
8165
8167
8170
8172
8172
8171
8170
8170
8170
8171
8172
8172
8172
8175
8178
8181
8185
8188
8188
8185
8183
8183
8184
8184
8184
8182
8179
8178
8179
8182
8187
8194
8198
8201
8202
8202
8203
8204
8204
8204
8204
8202
8199
8198
8195
8192
8192
8192
8194
8196
8194
8187
8183
8186
8192
8191
8185
8180
8175
8171
8168
8166
8164
8162
8162
8162
8162
8162
8164
8165
8166
8168
8169
8170
8170
8169
8168
8169
8171
8172
8171
8170
8172
8177
8190
8209
8233
8261
8295
8332
8374
8423
8477
8534
8589
8636
8666
8679
8676
8655
8623
8579
8527
8473
8418
8365
8317
8271
8232
8200
8175
8160
8152
8149
8147
8144
8140
8137
8135
8133
8133
8135
8137
8136
8135
8133
8132
8133
8134
8133
8132
8128
8126
8129
8135
8139
8141
8142
8143
8143
8143
8142
8140
8139
8139
8139
8141
8142
8142
8143
8145
8145
8146
8148
8151
8156
8157
8156
8154
8154
8154
8155
8154
8153
8150
8149
8148
8149
8149
8150
8152
8154
8156
8158
8159
8159
8159
8159
8158
8159
8163
8169
8174
8178
8180
8181
8181
8179
8179
8178
8179
8180
8181
8182
8183
8186
8188
8189
8191
8193
8194
8195
8196
8197
8197
8197
8197
8197
8198
8200
8203
8204
8206
8206
8207
8208
8208
8208
8207
8206
8206
8205
8206
8209
8212
8213
8212
8209
8206
8205
8207
8209
8208
8205
8199
8194
8189
8185
8184
8182
8180
8179
8180
8181
8180
8176
8171
8169
8167
8165
8164
8164
8164
8165
8164
8161
8159
8159
8162
8164
8165
8165
8163
8162
8161
8160
8159
8160
8161
8162
8162
8161
8159
8157
8154
8152
8152
8153
8152
8151
8152
8153
8154
8155
8156
8158
8160
8160
8159
8158
8159
8159
8161
8163
8163
8164
8165
8166
8167
8169
8171
8173
8175
8174
8170
8165
8162
8162
8164
8166
8168
8170
8169
8167
8166
8167
8169
8169
8169
8169
8169
8170
8171
8172
8171
8171
8170
8171
8171
8173
8177
8182
8183
8181
8177
8174
8172
8171
8171
8172
8175
8177
8179
8180
8179
8178
8177
8175
8174
8174
8174
8173
8174
8175
8176
8176
8177
8177
8177
8176
8175
8174
8173
8174
8176
8177
8178
8178
8179
8180
8182
8183
8182
8179
8177
8176
8177
8177
8177
8176
8175
8176
8176
8176
8176
8176
8177
8178
8180
8180
8181
8181
8183
8187
8191
8195
8198
8200
8201
8201
8202
8202
8200
8197
8196
8195
8195
8197
8201
8205
8208
8210
8211
8211
8209
8206
8203
8203
8204
8204
8200
8194
8188
8185
8184
8182
8181
8180
8178
8177
8177
8180
8182
8182
8180
8179
8176
8171
8167
8167
8170
8172
8175
8176
8173
8168
8164
8163
8163
8166
8168
8171
8174
8180
8192
8210
8235
8265
8303
8345
8390
8442
8499
8559
8614
8658
8685
8694
8686
8659
8620
8570
8511
8448
8388
8335
8291
8253
8221
8197
8183
8175
8170
8165
8162
8162
8163
8163
8162
8157
8151
8147
8146
8146
8147
8146
8144
8142
8140
8139
8139
8138
8135
8132
8132
8134
8133
8133
8135
8136
8137
8137
8138
8139
8140
8142
8144
8148
8151
8153
8154
8153
8153
8152
8151
8150
8148
8147
8146
8146
8146
8147
8148
8149
8150
8151
8152
8153
8155
8158
8161
8164
8166
8168
8170
8172
8174
8173
8171
8169
8169
8171
8173
8174
8175
8175
8176
8178
8179
8179
8180
8181
8181
8181
8181
8183
8184
8185
8186
8187
8188
8192
8195
8199
8202
8204
8205
8204
8203
8202
8204
8206
8208
8209
8210
8212
8215
8217
8217
8215
8212
8210
8209
8209
8209
8209
8208
8205
8204
8204
8205
8205
8204
8201
8197
8193
8190
8188
8187
8185
8183
8181
8180
8179
8180
8181
8183
8183
8180
8177
8176
8174
8173
8171
8168
8164
8161
8160
8159
8158
8159
8160
8161
8162
8162
8161
8162
8164
8165
8164
8164
8163
8162
8162
8162
8161
8159
8159
8160
8160
8162
8165
8165
8164
8162
8159
8156
8154
8155
8156
8158
8157
8155
8156
8160
8164
8166
8167
8166
8165
8164
8164
8165
8167
8168
8170
8171
8173
8176
8177
8175
8174
8173
8173
8172
8172
8172
8173
8174
8174
8174
8174
8175
8175
8176
8177
8177
8178
8178
8177
8175
8175
8177
8178
8179
8177
8175
8173
8171
8171
8172
8174
8175
8175
8174
8174
8175
8175
8174
8175
8177
8180
8183
8185
8183
8179
8175
8173
8172
8175
8178
8180
8180
8178
8176
8174
8173
8173
8177
8180
8181
8178
8177
8176
8173
8171
8169
8168
8168
8168
8171
8175
8177
8179
8180
8180
8180
8182
8185
8189
8193
8194
8193
8190
8189
8189
8192
8194
8196
8198
8198
8198
8197
8197
8198
8201
8203
8203
8203
8203
8203
8203
8203
8202
8202
8202
8200
8197
8194
8190
8188
8186
8186
8186
8188
8189
8188
8186
8182
8176
8171
8167
8164
8164
8164
8164
8165
8166
8167
8169
8170
8171
8171
8171
8171
8170
8170
8172
8174
8179
8188
8203
8221
8245
8275
8312
8356
8405
8455
8508
8568
8624
8667
8695
8708
8705
8681
8636
8575
8511
8445
8381
8326
8280
8242
8214
8193
8178
8168
8161
8159
8160
8159
8157
8153
8149
8146
8143
8142
8142
8141
8141
8142
8142
8141
8139
8136
8134
8134
8134
8135
8135
8135
8135
8135
8134
8134
8136
8136
8136
8137
8138
8141
8145
8149
8150
8150
8149
8148
8147
8148
8151
8155
8156
8156
8155
8152
8149
8146
8145
8144
8143
8145
8150
8154
8156
8159
8163
8164
8163
8160
8156
8153
8153
8155
8158
8161
8164
8167
8169
8171
8173
8173
8173
8172
8172
8173
8176
8180
8182
8183
8183
8183
8185
8189
8193
8195
8196
8195
8195
8195
8197
8199
8199
8199
8201
8203
8205
8206
8209
8213
8214
8212
8210
8210
8211
8211
8211
8212
8212
8210
8207
8204
8201
8197
8195
8193
8193
8195
8197
8197
8197
8195
8192
8188
8186
8184
8182
8183
8184
8184
8184
8183
8181
8177
8172
8169
8166
8164
8162
8160
8160
8159
8158
8157
8156
8155
8156
8156
8156
8156
8155
8156
8157
8158
8157
8158
8161
8163
8162
8160
8158
8156
8154
8153
8152
8152
8153
8155
8156
8156
8155
8154
8154
8155
8158
8161
8162
8160
8158
8162
8165
8167
8169
8171
8172
8171
8168
8164
8162
8162
8163
8163
8162
8161
8162
8162
8162
8164
8166
8169
8170
8171
8173
8174
8172
8169
8165
8163
8162
8163
8164
8166
8168
8169
8170
8170
8171
8172
8172
8172
8173
8174
8176
8176
8174
8173
8172
8172
8173
8173
8172
8171
8172
8174
8174
8174
8175
8177
8177
8176
8175
8175
8173
8172
8170
8168
8166
8166
8166
8167
8167
8167
8168
8170
8172
8172
8172
8173
8174
8176
8177
8177
8177
8176
8175
8175
8171
8169
8171
8174
8174
8174
8174
8174
8176
8178
8181
8183
8186
8189
8192
8192
8192
8192
8190
8185
8180
8179
8181
8182
8183
8184
8186
8189
8193
8196
8199
8201
8205
8210
8211
8209
8205
8201
8198
8195
8193
8190
8188
8185
8183
8181
8181
8181
8181
8180
8176
8171
8170
8173
8174
8172
8171
8171
8170
8170
8170
8172
8173
8174
8175
8176
8178
8179
8179
8177
8176
8177
8178
8179
8179
8181
8186
8200
8219
8245
8278
8315
8356
8405
8457
8513
8568
8617
8652
8668
8670
8656
8628
8586
8532
8473
8412
8354
8305
8265
8232
8206
8188
8175
8168
8162
8159
8157
8155
8154
8154
8153
8151
8148
8143
8139
8136
8133
8131
8131
8132
8134
8135
8135
8135
8134
8133
8133
8134
8135
8137
8138
8139
8139
8139
8140
8141
8143
8146
8146
8144
8143
8146
8149
8151
8153
8151
8147
8143
8142
8143
8144
8144
8144
8144
8146
8148
8150
8153
8155
8158
8160
8163
8166
8168
8168
8166
8164
8161
8159
8158
8158
8160
8163
8166
8169
8171
8171
8172
8173
8175
8178
8181
8181
8180
8180
8181
8184
8189
8195
8197
8199
8202
8205
8205
8202
8197
8194
8196
8200
8204
8206
8204
8202
8199
8198
8197
8197
8198
8199
8200
8201
8202
8203
8203
8204
8205
8205
8204
8203
8202
8199
8195
8194
8196
8198
8197
8196
8196
8195
8194
8192
8189
8186
8182
8179
8176
8174
8171
8168
8168
8171
8173
8173
8172
8170
8168
8165
8164
8163
8162
8162
8162
8164
8165
8165
8166
8168
8168
8166
8162
8156
8153
8153
8153
8153
8153
8153
8154
8156
8157
8158
8159
8159
8159
8160
8160
8159
8158
8156
8153
8151
8149
8150
8152
8155
8156
8155
8155
8155
8155
8155
8157
8159
8162
8164
8165
8166
8167
8167
8166
8166
8167
8169
8172
8174
8173
8171
8169
8166
8164
8165
8168
8169
8171
8173
8177
8179
8178
8174
8171
8169
8167
8166
8168
8170
8171
8172
8174
8176
8175
8176
8178
8180
8181
8184
8189
8193
8192
8189
8187
8181
8174
8166
8161
8159
8159
8160
8162
8165
8169
8174
8177
8178
8177
8175
8172
8169
8168
8168
8169
8170
8171
8170
8169
8170
8170
8169
8170
8171
8171
8169
8168
8170
8172
8175
8176
8177
8178
8180
8182
8185
8187
8188
8189
8190
8189
8188
8187
8188
8192
8195
8197
8198
8197
8195
8193
8194
8194
8195
8195
8197
8203
8209
8211
8209
8206
8202
8200
8200
8200
8200
8197
8195
8194
8193
8190
8189
8188
8185
8182
8177
8175
8175
8176
8176
8176
8174
8172
8172
8171
8170
8169
8167
8165
8165
8165
8164
8161
8159
8160
8164
8166
8168
8171
8173
8176
8180
8188
8203
8224
8249
8280
8318
8364
8416
8473
8534
8593
8642
8675
8691
8691
8674
8640
8592
8533
8471
8408
8352
8304
8263
8230
8205
8186
8175
8168
8161
8156
8153
8150
8149
8148
8149
8148
8147
8145
8142
8141
8142
8144
8147
8150
8150
8148
8143
8138
8134
8131
8129
8130
8135
8140
8142
8143
8143
8142
8140
8138
8134
8130
8129
8130
8132
8135
8137
8138
8139
8141
8141
8141
8143
8145
8147
8148
8149
8151
8152
8151
8150
8152
8155
8157
8158
8160
8162
8163
8161
8161
8161
8163
8165
8167
8168
8168
8168
8168
8167
8167
8168
8170
8173
8175
8176
8176
8176
8176
8178
8179
8180
8180
8179
8180
8184
8188
8190
8192
8195
8198
8200
8203
8205
8206
8205
8204
8203
8201
8201
8202
8202
8202
8202
8202
8203
8204
8206
8208
8208
8207
8206
8205
8204
8202
8200
8199
8199
8199
8198
8198
8198
8197
8195
8192
8189
8186
8183
8178
8173
8173
8176
8178
8178
8176
8172
8169
8166
8164
8163
8162
8160
8159
8158
8157
8156
8155
8156
8157
8159
8161
8162
8161
8160
8159
8158
8158
8159
8159
8159
8158
8158
8157
8156
8154
8154
8156
8157
8158
8159
8160
8159
8158
8159
8160
8160
8159
8158
8157
8158
8159
8161
8161
8160
8160
8160
8160
8161
8162
8162
8163
8164
8164
8165
8166
8167
8169
8172
8173
8172
8171
8171
8171
8173
8175
8174
8170
8168
8168
8171
8175
8178
8181
8181
8179
8176
8172
8170
8168
8168
8169
8170
8172
8173
8173
8173
8173
8173
8174
8177
8179
8178
8175
8174
8172
8169
8168
8168
8169
8170
8171
8171
8172
8172
8173
8173
8175
8176
8177
8177
8176
8174
8174
8176
8178
8178
8177
8176
8174
8173
8171
8170
8171
8171
8171
8174
8178
8180
8181
8180
8177
8174
8172
8170
8168
8168
8169
8170
8172
8174
8177
8180
8181
8183
8184
8184
8185
8185
8189
8194
8197
8199
8201
8203
8203
8203
8202
8201
8201
8202
8203
8203
8203
8202
8200
8199
8198
8199
8199
8198
8196
8192
8188
8186
8183
8181
8179
8179
8180
8181
8181
8182
8181
8178
8176
8177
8179
8181
8181
8179
8174
8169
8164
8162
8160
8159
8162
8166
8169
8173
8177
8181
8183
8187
8197
8212
8236
8266
8304
8350
8402
8458
8518
8577
8629
8670
8695
8703
8692
8663
8618
8562
8501
8439
8381
8328
8283
8246
8216
8194
8178
8169
8164
8161
8159
8155
8153
8151
8147
8143
8141
8143
8143
8141
8136
8134
8133
8134
8134
8133
8133
8134
8135
8134
8135
8136
8137
8139
8139
8138
8136
8136
8135
8135
8137
8139
8139
8140
8140
8140
8141
8142
8142
8142
8143
8144
8146
8148
8150
8152
8153
8154
8155
8154
8154
8154
8156
8159
8161
8162
8162
8161
8161
8161
8161
8160
8160
8159
8157
8157
8158
8162
8165
8168
8170
8172
8175
8177
8178
8178
8176
8176
8176
8178
8181
8183
8184
8186
8190
8193
8193
8194
8195
8196
8196
8196
8194
8193
8193
8196
8199
8200
8200
8201
8203
8204
8203
8200
8199
8199
8201
8202
8201
8201
8200
8200
8200
8200
8201
8200
8200
8200
8201
8202
8200
8199
8199
8197
8195
8193
8188
8184
8180
8176
8172
8168
8166
8165
8165
8166
8167
8169
8169
8167
8166
8166
8165
8164
8163
8159
8156
8155
8157
8160
8161
8158
8154
8151
8150
8151
8152
8153
8154
8153
8153
8154
8155
8155
8155
8154
8152
8153
8156
8158
8158
8157
8155
8155
8154
8154
8155
8157
8158
8159
8162
8165
8167
8166
8164
8162
8161
8161
8160
8158
8159
8162
8163
8162
8161
8162
8164
8165
8166
8166
8166
8166
8167
8168
8169
8171
8172
8174
8175
8177
8177
8176
8173
8170
8168
8166
8164
8162
8163
8166
8169
8172
8173
8174
8174
8173
8172
8171
8172
8173
8175
8177
8180
8181
8179
8177
8173
8171
8171
8171
8172
8171
8168
8164
8161
8161
8162
8164
8165
8168
8170
8172
8172
8171
8171
8170
8169
8169
8171
8171
8171
8172
8171
8170
8168
8167
8168
8170
8172
8173
8173
8172
8171
8170
8170
8171
8172
8174
8177
8180
8183
8185
8185
8184
8183
8184
8186
8188
8190
8190
8190
8191
8192
8192
8192
8192
8193
8192
8191
8189
8188
8189
8195
8202
8205
8207
8207
8206
8204
8201
8200
8199
8197
8194
8189
8187
8188
8188
8187
8183
8178
8175
8175
8175
8175
8174
8171
8169
8166
8165
8164
8166
8170
8170
8167
8165
8164
8166
8169
8170
8170
8170
8170
8173
8176
8178
8183
8195
8211
8230
8255
8286
8328
8379
8434
8494
8556
8614
8660
8690
8702
8694
8667
8623
8567
8505
8441
8380
8327
8283
8246
8217
8195
8179
8171
8165
8161
8158
8157
8156
8154
8152
8149
8146
8141
8138
8133
8128
8126
8130
8133
8134
8135
8137
8136
8135
8134
8135
8136
8135
8133
8134
8136
8138
8139
8141
8143
8144
8145
8146
8147
8147
8147
8147
8147
8146
8145
8142
8140
8139
8140
8141
8142
8142
8143
8145
8148
8150
8151
8151
8151
8151
8152
8154
8156
8158
8160
8160
8161
8162
8165
8167
8166
8165
8165
8166
8167
8169
8171
8173
8174
8175
8175
8175
8176
8177
8177
8177
8177
8178
8183
8188
8192
8193
8193
8194
8197
8201
8204
8206
8206
8206
8205
8204
8203
8203
8205
8207
8208
8209
8209
8206
8204
8206
8209
8210
8208
8204
8198
8197
8198
8199
8199
8199
8200
8200
8198
8195
8190
8186
8184
8184
8185
8185
8183
8180
8177
8175
8172
8169
8168
8169
8172
8174
8175
8174
8172
8170
8168
8166
8162
8158
8156
8157
8158
8157
8153
8150
8148
8149
8150
8151
8151
8152
8154
8156
8158
8160
8158
8158
8159
8160
8158
8158
8159
8159
8160
8161
8161
8161
8160
8158
8155
8154
8154
8155
8156
8157
8159
8162
8164
8164
8164
8163
8161
8159
8157
8153
8151
8152
8154
8157
8161
8166
8171
8174
8172
8170
8167
8166
8167
8166
8164
8163
8167
8169
8169
8170
8170
8169
8169
8168
8168
8169
8170
8171
8172
8173
8175
8175
8173
8173
8172
8173
8172
8172
8172
8173
8174
8173
8173
8173
8173
8173
8173
8172
8172
8172
8173
8174
8175
8177
8179
8178
8177
8176
8175
8177
8180
8183
8184
8184
8182
8180
8179
8178
8179
8181
8183
8185
8186
8187
8181
8174
8173
8177
8182
8185
8183
8177
8171
8167
8165
8164
8163
8164
8165
8167
8169
8172
8175
8178
8181
8184
8187
8191
8193
8193
8194
8195
8196
8197
8200
8202
8205
8207
8209
8211
8212
8211
8208
8206
8204
8202
8199
8196
8193
8189
8186
8182
8179
8177
8175
8175
8174
8175
8175
8174
8173
8171
8170
8169
8168
8166
8167
8169
8171
8171
8172
8173
8174
8173
8172
8172
8174
8176
8177
8179
8185
8198
8216
8244
8277
8315
8357
8402
8450
8502
8556
8607
8649
8676
8688
8683
8659
8616
8558
8493
8426
8367
8320
8281
8246
8219
8199
8185
8177
8170
8162
8155
8149
8145
8143
8143
8143
8142
8139
8135
8133
8132
8133
8134
8135
8135
8136
8136
8136
8135
8136
8137
8138
8139
8139
8139
8139
8139
8139
8140
8140
8141
8142
8144
8146
8147
8148
8149
8149
8149
8149
8150
8152
8154
8157
8159
8160
8160
8161
8161
8159
8157
8156
8158
8163
8166
8166
8166
8165
8163
8162
8160
8158
8156
8157
8159
8162
8164
8164
8164
8166
8167
8169
8171
8172
8173
8174
8175
8175
8177
8182
8188
8195
8199
8198
8197
8197
8198
8198
8198
8198
8198
8197
8197
8198
8199
8198
8198
8199
8200
8201
8202
8204
8205
8206
8206
8207
8208
8208
8208
8207
8206
8206
8206
8206
8206
8205
8205
8204
8202
8200
8198
8195
8193
8191
8188
8186
8184
8183
8182
8182
8181
8180
8179
8179
8178
8177
8174
8171
8169
8170
8172
8174
8174
8172
8169
8167
8165
8163
8164
8167
8167
8163
8159
8156
8154
8151
8148
8145
8145
8145
8147
8151
8155
8159
8162
8163
8162
8158
8156
8153
8152
8153
8153
8155
8156
8158
8160
8161
8162
8163
8164
8165
8164
8163
8163
8163
8164
8165
8166
8168
8171
8174
8175
8175
8174
8171
8169
8167
8166
8167
8167
8169
8170
8170
8171
8173
8175
8176
8176
8175
8174
8175
8176
8176
8176
8175
8174
8173
8174
8174
8173
8173
8173
8173
8175
8180
8187
8193
8193
8187
8181
8175
8171
8169
8170
8170
8170
8170
8171
8171
8171
8171
8171
8171
8171
8170
8172
8176
8180
8181
8180
8179
8176
8173
8171
8171
8170
8170
8169
8168
8167
8169
8171
8172
8173
8173
8174
8174
8175
8176
8177
8177
8177
8178
8180
8182
8183
8185
8186
8186
8186
8185
8185
8185
8187
8188
8191
8193
8196
8198
8200
8201
8200
8200
8201
8203
8205
8208
8209
8209
8207
8205
8204
8202
8201
8201
8201
8200
8199
8197
8194
8187
8182
8180
8179
8178
8176
8176
8176
8175
8174
8174
8175
8176
8177
8176
8176
8179
8182
8181
8177
8172
8168
8168
8174
8183
8191
8194
8194
8192
8189
8189
8196
8207
8225
8250
8285
8332
8384
8437
8492
8552
8609
8654
8683
8696
8691
8667
8624
8567
8506
8445
8385
8332
8286
8247
8217
8196
8180
8170
8164
8160
8158
8155
8153
8150
8148
8146
8145
8143
8142
8140
8137
8134
8135
8136
8136
8137
8138
8137
8137
8136
8136
8136
8136
8136
8137
8139
8140
8139
8138
8138
8139
8139
8139
8140
8141
8142
8142
8142
8142
8143
8144
8145
8147
8149
8151
8154
8157
8159
8160
8162
8163
8167
8173
8176
8178
8175
8169
8161
8154
8149
8147
8147
8150
8155
8160
8164
8165
8163
8159
8156
8155
8155
8155
8158
8161
8163
8166
8168
8170
8172
8174
8177
8180
8181
8182
8183
8184
8186
8189
8194
8196
8197
8198
8199
8200
8201
8203
8203
8202
8202
8204
8205
8206
8207
8207
8207
8207
8207
8207
8207
8206
8205
8205
8204
8203
8204
8203
8201
8199
8196
8195
8196
8195
8195
8194
8193
8193
8196
8200
8201
8197
8189
8181
8173
8167
8164
8162
8163
8168
8175
8180
8180
8179
8179
8176
8169
8162
8158
8157
8157
8155
8153
8150
8146
8143
8140
8140
8142
8143
8143
8142
8140
8141
8145
8149
8151
8153
8155
8156
8157
8157
8158
8158
8157
8156
8156
8157
8159
8160
8160
8160
8161
8163
8165
8164
8164
8163
8163
8161
8160
8162
8166
8167
8168
8168
8169
8169
8170
8170
8170
8170
8171
8172
8172
8172
8172
8172
8171
8172
8172
8172
8172
8173
8172
8172
8171
8170
8171
8171
8173
8174
8175
8175
8176
8177
8176
8176
8178
8180
8181
8180
8180
8179
8178
8175
8173
8174
8177
8181
8185
8186
8184
8178
8171
8166
8164
8164
8165
8168
8170
8171
8171
8173
8176
8179
8180
8178
8174
8172
8169
8163
8159
8159
8163
8167
8169
8169
8169
8169
8168
8168
8169
8169
8170
8170
8171
8172
8173
8175
8177
8178
8179
8181
8182
8182
8182
8182
8182
8183
8185
8188
8190
8193
8195
8196
8196
8197
8198
8199
8199
8200
8200
8201
8202
8205
8207
8208
8207
8205
8203
8203
8204
8205
8204
8200
8194
8187
8184
8185
8186
8186
8185
8183
8181
8179
8177
8174
8173
8175
8180
8183
8183
8176
8171
8169
8166
8162
8159
8157
8157
8158
8161
8164
8170
8179
8187
8192
8194
8196
8205
8224
8250
8283
8325
8374
8428
8487
8549
8605
8649
8680
8694
8691
8669
8629
8575
8513
8449
8387
8335
8291
8252
8221
8197
8181
8173
8169
8165
8161
8157
8153
8150
8148
8147
8145
8143
8140
8139
8138
8138
8137
8136
8136
8135
8135
8138
8142
8143
8142
8140
8138
8134
8133
8138
8145
8150
8151
8149
8145
8141
8137
8135
8135
8135
8135
8138
8143
8148
8150
8148
8145
8143
8142
8142
8142
8143
8144
8145
8145
8146
8149
8153
8154
8154
8155
8159
8163
8165
8165
8163
8161
8160
8161
8161
8158
8157
8158
8160
8163
8166
8168
8169
8169
8170
8171
8172
8174
8175
8177
8181
8185
8191
8197
8200
8201
8201
8199
8198
8197
8196
8196
8195
8196
8198
8201
8203
8205
8205
8205
8204
8203
8201
8202
8204
8205
8206
8208
8211
8211
8210
8209
8208
8207
8208
8209
8206
8201
8198
8195
8193
8192
8192
8190
8187
8183
8181
8181
8180
8176
8173
8171
8170
8169
8167
8165
8162
8159
8158
8160
8161
8161
8158
8156
8154
8152
8151
8150
8149
8150
8150
8151
8151
8150
8150
8150
8150
8150
8151
8153
8154
8156
8157
8158
8158
8158
8156
8154
8152
8152
8154
8155
8158
8160
8161
8160
8159
8160
8162
8163
8164
8164
8164
8164
8165
8167
8169
8170
8173
8175
8174
8170
8163
8157
8155
8157
8159
8161
8163
8163
8162
8161
8161
8162
8163
8163
8164
8165
8167
8168
8169
8170
8171
8172
8173
8174
8173
8169
8169
8172
8175
8175
8174
8172
8172
8172
8174
8180
8188
8196
8199
8197
8193
8188
8184
8181
8177
8171
8166
8163
8161
8159
8160
8163
8166
8168
8168
8165
8164
8164
8164
8164
8165
8166
8168
8170
8170
8170
8170
8171
8172
8171
8170
8170
8172
8172
8171
8170
8168
8168
8167
8168
8171
8174
8176
8177
8178
8180
8183
8185
8185
8185
8184
8184
8184
8186
8189
8193
8196
8199
8201
8201
8200
8198
8199
8202
8203
8203
8202
8201
8199
8198
8198
8199
8199
8199
8199
8200
8200
8200
8198
8194
8192
8193
8192
8187
8180
8173
8168
8168
8169
8170
8172
8172
8171
8170
8168
8166
8164
8162
8161
8161
8162
8163
8164
8164
8164
8166
8167
8168
8171
8174
8182
8197
8218
8245
8277
8316
8361
8407
8458
8515
8574
8625
8662
8683
8686
8671
8639
8594
8541
8482
8420
8362
8312
8270
8234
8205
8185
8173
8165
8160
8155
8151
8148
8146
8147
8147
8147
8145
8142
8140
8139
8138
8137
8136
8137
8138
8139
8140
8141
8141
8141
8141
8139
8137
8136
8139
8143
8145
8145
8143
8141
8139
8138
8138
8137
8137
8139
8140
8142
8145
8148
8150
8151
8153
8157
8166
8176
8184
8184
8176
8165
8154
8146
8142
8141
8142
8142
8142
8144
8146
8148
8150
8152
8155
8157
8159
8161
8162
8162
8162
8164
8166
8168
8171
8172
8174
8176
8178
8180
8183
8185
8187
8188
8189
8191
8193
8194
8195
8198
8200
8203
8204
8205
8205
8206
8206
8206
8206
8207
8207
8207
8206
8206
8207
8208
8210
8212
8213
8214
8214
8215
8215
8215
8213
8212
8211
8207
8203
8198
8193
8190
8189
8188
8186
8184
8182
8180
8177
8176
8175
8174
8173
8172
8171
8171
8171
8170
8170
8170
8168
8165
8161
8157
8158
8161
8163
8164
8165
8164
8162
8160
8159
8161
8165
8167
8166
8164
8163
8159
8156
8154
8153
8153
8152
8152
8153
8154
8157
8160
8161
8161
8160
8160
8159
8158
8158
8157
8157
8157
8157
8157
8158
8158
8159
8160
8160
8162
8164
8165
8167
8169
8170
8171
8172
8173
8173
8172
8173
8173
8172
8171
8170
8169
8168
8169
8171
8172
8172
8170
8167
8167
8170
8173
8177
8183
8192
8197
8196
8189
8180
8172
8167
8165
8163
8163
8163
8164
8166
8169
8172
8173
8173
8172
8171
8171
8170
8171
8172
8174
8176
8178
8179
8177
8176
8174
8174
8173
8172
8171
8170
8170
8171
8172
8172
8172
8173
8173
8173
8174
8176
8177
8177
8176
8175
8174
8174
8176
8178
8178
8180
8182
8183
8183
8184
8185
8184
8183
8185
8188
8192
8194
8196
8197
8199
8202
8205
8206
8203
8200
8200
8201
8202
8204
8206
8205
8205
8205
8205
8205
8205
8203
8201
8200
8198
8195
8191
8187
8185
8182
8179
8178
8178
8177
8176
8174
8173
8171
8169
8167
8166
8167
8170
8174
8177
8179
8183
8187
8186
8181
8177
8177
8180
8184
8185
8182
8178
8177
8183
8197
8217
8243
8278
8322
8374
8429
8491
8552
8609
8655
8685
8698
8693
8670
8631
8577
8516
8451
8390
8337
8293
8255
8223
8199
8182
8173
8166
8160
8155
8154
8154
8153
8151
8149
8147
8145
8143
8140
8137
8136
8135
8135
8135
8135
8135
8134
8135
8135
8136
8137
8138
8139
8138
8138
8138
8138
8138
8139
8140
8141
8141
8141
8141
8142
8143
8144
8146
8147
8147
8147
8147
8148
8149
8149
8150
8151
8151
8151
8151
8151
8151
8151
8154
8157
8157
8157
8158
8160
8161
8162
8164
8166
8172
8181
8192
8200
8203
8196
8184
8175
8169
8169
8172
8177
8180
8182
8182
8182
8183
8183
8182
8179
8179
8182
8186
8189
8192
8190
8187
8184
8186
8188
8190
8193
8194
8195
8196
8198
8200
8202
8202
8201
8200
8200
8200
8201
8200
8200
8200
8200
8200
8199
8200
8202
8201
8200
8199
8198
8197
8195
8194
8192
8189
8185
8182
8180
8179
8178
8176
8175
8173
8172
8169
8166
8164
8164
8164
8164
8165
8167
8169
8171
8173
8177
8180
8180
8179
8174
8168
8165
8166
8168
8173
8175
8170
8158
8145
8135
8131
8132
8135
8139
8142
8144
8145
8146
8145
8146
8148
8150
8151
8152
8152
8153
8154
8156
8157
8158
8159
8160
8159
8158
8159
8161
8162
8162
8162
8163
8164
8164
8166
8166
8166
8167
8168
8169
8170
8170
8169
8169
8170
8171
8171
8171
8171
8170
8169
8169
8169
8169
8170
8171
8171
8171
8170
8169
8170
8171
8173
8175
8177
8176
8175
8176
8179
8180
8178
8174
8173
8173
8175
8177
8179
8181
8184
8186
8185
8181
8175
8169
8165
8163
8161
8161
8163
8165
8166
8166
8166
8167
8168
8171
8172
8171
8169
8168
8168
8168
8169
8169
8170
8171
8171
8172
8172
8173
8173
8171
8169
8170
8174
8176
8176
8176
8176
8176
8176
8177
8179
8181
8184
8186
8188
8191
8194
8196
8198
8199
8199
8197
8197
8200
8203
8205
8205
8206
8207
8207
8206
8205
8203
8203
8204
8205
8203
8199
8192
8187
8184
8181
8179
8177
8175
8174
8173
8173
8173
8173
8174
8177
8183
8195
8204
8202
8188
8173
8162
8155
8150
8149
8149
8152
8154
8156
8159
8162
8164
8166
8169
8173
8182
8198
8221
8249
8284
8328
8379
8431
8485
8543
8600
8648
8681
8697
8694
8673
8634
8580
8523
8465
8405
8351
8303
8261
8225
8199
8182
8172
8163
8153
8146
8149
8155
8157
8158
8158
8156
8151
8145
8140
8136
8135
8139
8143
8144
8142
8139
8139
8142
8145
8144
8140
8134
8130
8126
8123
8122
8121
8122
8124
8127
8130
8132
8133
8134
8136
8137
8139
8141
8142
8141
8141
8144
8146
8148
8148
8148
8149
8150
8152
8154
8154
8154
8154
8155
8156
8157
8156
8156
8155
8155
8155
8157
8160
8163
8166
8167
8168
8170
8173
8176
8178
8176
8174
8175
8175
8175
8176
8177
8181
8185
8186
8183
8183
8187
8190
8193
8195
8197
8202
8209
8213
8213
8211
8206
8202
8201
8202
8205
8208
8209
8209
8207
8206
8206
8204
8203
8201
8200
8197
8195
8193
8194
8196
8199
8201
8200
8199
8197
8194
8192
8189
8187
8185
8183
8182
8180
8177
8174
8173
8171
8169
8167
8167
8166
8165
8163
8162
8162
8161
8160
8160
8162
8166
8168
8168
8166
8164
8161
8159
8157
8157
8158
8160
8159
8157
8154
8154
8153
8151
8148
8148
8148
8150
8153
8156
8160
8164
8167
8169
8170
8168
8164
8160
8156
8152
8150
8148
8149
8152
8152
8147
8143
8146
8151
8155
8159
8163
8164
8163
8164
8165
8164
8163
8162
8162
8163
8164
8166
8168
8168
8168
8168
8169
8169
8170
8171
8172
8171
8170
8170
8169
8169
8168
8168
8170
8172
8172
8171
8171
8170
8171
8172
8175
8180
8185
8186
8184
8182
8182
8181
8180
8178
8176
8175
8175
8173
8170
8166
8164
8163
8162
8162
8162
8163
8164
8167
8170
8172
8174
8177
8181
8181
8178
8174
8170
8168
8167
8167
8167
8168
8169
8170
8172
8173
8174
8174
8174
8173
8172
8173
8173
8173
8173
8175
8177
8179
8180
8180
8179
8178
8177
8179
8183
8187
8188
8190
8192
8194
8195
8196
8196
8195
8197
8201
8204
8204
8204
8205
8204
8203
8202
8202
8202
8200
8197
8194
8189
8186
8184
8181
8178
8175
8173
8173
8174
8175
8176
8176
8177
8175
8172
8168
8166
8165
8165
8164
8165
8165
8166
8168
8170
8171
8171
8172
8172
8174
8176
8182
8194
8211
8233
8259
8294
8338
8389
8442
8491
8539
8587
8630
8659
8674
8673
8652
8613
8561
8503
8444
8384
8328
8281
8241
8209
8185
8170
8161
8155
8153
8153
8153
8152
8152
8151
8149
8147
8145
8143
8143
8144
8144
8141
8137
8135
8135
8136
8137
8138
8138
8137
8135
8134
8133
8133
8135
8136
8137
8137
8137
8137
8137
8138
8139
8140
8142
8143
8145
8147
8148
8147
8146
8147
8150
8153
8154
8156
8157
8157
8158
8158
8157
8158
8159
8161
8162
8162
8163
8163
8164
8164
8165
8164
8163
8161
8161
8162
8164
8166
8167
8167
8169
8171
8173
8173
8173
8173
8173
8175
8180
8185
8189
8192
8194
8195
8196
8199
8203
8207
8210
8211
8212
8212
8211
8208
8206
8203
8200
8198
8198
8200
8201
8203
8203
8203
8203
8202
8200
8197
8196
8198
8199
8201
8201
8201
8200
8199
8199
8198
8197
8195
8195
8194
8192
8189
8187
8185
8184
8182
8179
8177
8175
8173
8173
8174
8174
8172
8170
8168
8166
8166
8166
8166
8165
8164
8164
8163
8161
8159
8156
8154
8153
8153
8153
8154
8155
8156
8156
8156
8157
8158
8158
8160
8162
8163
8162
8161
8159
8157
8156
8157
8159
8162
8164
8164
8162
8157
8154
8153
8154
8156
8159
8160
8160
8160
8160
8162
8164
8166
8168
8169
8168
8168
8168
8168
8168
8168
8170
8171
8171
8169
8168
8169
8170
8171
8172
8172
8173
8174
8176
8177
8177
8177
8176
8175
8175
8175
8175
8175
8177
8182
8185
8185
8181
8177
8173
8170
8167
8164
8163
8164
8166
8167
8167
8167
8167
8168
8170
8172
8171
8169
8171
8173
8175
8175
8175
8175
8175
8176
8176
8177
8180
8184
8185
8183
8179
8175
8172
8170
8170
8171
8172
8172
8173
8174
8174
8174
8174
8176
8177
8178
8179
8180
8181
8183
8185
8188
8193
8196
8197
8198
8198
8198
8198
8199
8198
8196
8195
8195
8197
8199
8203
8208
8210
8209
8205
8202
8200
8198
8196
8196
8198
8199
8198
8196
8193
8190
8187
8182
8177
8175
8174
8175
8174
8173
8171
8168
8167
8169
8172
8174
8174
8173
8172
8171
8170
8168
8167
8167
8168
8169
8169
8170
8170
8171
8175
8181
8192
8208
8229
8255
8287
8328
8378
8434
8496
8559
8615
8659
8688
8702
8698
8677
8639
8585
8523
8457
8393
8339
8294
8255
8224
8200
8182
8173
8167
8163
8158
8155
8153
8153
8153
8153
8151
8148
8145
8141
8139
8139
8139
8139
8140
8140
8142
8143
8142
8141
8139
8138
8138
8139
8136
8132
8130
8130
8132
8133
8133
8136
8140
8141
8140
8139
8138
8138
8139
8142
8143
8145
8144
8142
8141
8141
8143
8145
8147
8148
8150
8152
8153
8154
8155
8158
8159
8160
8161
8162
8162
8162
8162
8163
8164
8167
8170
8171
8172
8171
8171
8173
8175
8176
8176
8178
8180
8182
8182
8181
8179
8179
8179
8180
8183
8186
8191
8193
8193
8193
8194
8197
8199
8200
8201
8200
8199
8198
8198
8199
8200
8201
8202
8203
8203
8204
8205
8205
8204
8204
8204
8205
8207
8212
8214
8212
8208
8205
8202
8200
8200
8199
8196
8190
8183
8180
8179
8178
8178
8177
8175
8175
8172
8168
8164
8163
8162
8162
8163
8163
8162
8160
8159
8159
8161
8162
8162
8161
8158
8157
8155
8155
8156
8155
8154
8155
8157
8158
8159
8158
8157
8156
8158
8160
8160
8159
8159
8161
8163
8162
8162
8161
8159
8159
8158
8159
8159
8160
8161
8161
8162
8163
8164
8166
8167
8168
8169
8168
8166
8164
8164
8165
8166
8166
8166
8170
8172
8172
8171
8169
8167
8165
8164
8165
8167
8170
8172
8172
8172
8174
8178
8180
8178
8175
8174
8174
8174
8174
8172
8172
8173
8174
8174
8175
8175
8174
8173
8173
8175
8176
8176
8174
8170
8168
8166
8168
8170
8172
8173
8172
8171
8170
8169
8169
8170
8171
8172
8173
8172
8171
8170
8170
8172
8174
8175
8176
8177
8178
8179
8181
8181
8181
8180
8178
8177
8176
8174
8173
8172
8172
8172
8171
8171
8170
8170
8170
8172
8174
8175
8177
8178
8180
8182
8181
8178
8178
8183
8189
8194
8196
8199
8203
8205
8205
8202
8198
8195
8198
8203
8206
8207
8208
8207
8205
8201
8199
8196
8195
8195
8196
8197
8198
8197
8194
8192
8189
8187
8186
8183
8180
8178
8178
8180
8184
8188
8192
8189
8183
8177
8171
8166
8161
8160
8159
8160
8161
8163
8164
8165
8166
8166
8166
8168
8171
8174
8180
8190
8207
8229
8253
8280
8316
8362
8414
8471
8531
8589
8639
8674
8691
8693
8679
8647
8598
8539
8477
8413
8355
8303
8259
8226
8203
8186
8176
8171
8167
8164
8161
8157
8153
8149
8146
8143
8141
8139
8136
8134
8132
8131
8132
8135
8136
8137
8138
8140
8144
8148
8151
8152
8150
8146
8142
8140
8139
8140
8140
8142
8143
8142
8144
8150
8153
8154
8153
8149
8143
8139
8135
8134
8134
8135
8136
8139
8142
8144
8145
8146
8148
8149
8148
8147
8150
8152
8154
8154
8155
8157
8159
8161
8163
8164
8164
8165
8166
8166
8165
8168
8171
8174
8177
8179
8180
8181
8183
8184
8185
8186
8186
8186
8185
8184
8184
8186
8190
8195
8198
8199
8199
8199
8201
8202
8204
8207
8208
8208
8207
8206
8206
8208
8209
8209
8209
8209
8209
8210
8212
8213
8214
8214
8213
8211
8209
8203
8196
8190
8188
8187
8186
8186
8185
8183
8180
8177
8174
8173
8173
8174
8175
8175
8174
8170
8165
8164
8167
8168
8167
8165
8163
8162
8162
8162
8161
8160
8159
8158
8157
8157
8156
8156
8156
8155
8154
8153
8153
8155
8158
8160
8159
8158
8155
8154
8157
8159
8160
8159
8157
8156
8156
8155
8155
8154
8155
8155
8156
8157
8158
8160
8164
8166
8166
8166
8166
8167
8170
8171
8170
8166
8163
8160
8157
8157
8158
8159
8160
8162
8163
8164
8166
8167
8169
8170
8169
8168
8169
8171
8174
8177
8177
8174
8173
8172
8171
8171
8172
8173
8173
8173
8173
8175
8177
8177
8176
8174
8172
8170
8169
8166
8161
8158
8162
8168
8170
8171
8175
8179
8180
8180
8181
8180
8178
8175
8174
8173
8171
8170
8170
8173
8176
8178
8178
8177
8176
8177
8178
8178
8177
8177
8178
8179
8178
8176
8174
8173
8172
8171
8170
8169
8169
8171
8173
8174
8177
8181
8182
8182
8180
8179
8180
8183
8186
8189
8188
8187
8186
8186
8187
8187
8189
8193
8195
8196
8199
8204
8207
8208
8209
8210
8211
8209
8205
8201
8197
8193
8191
8192
8193
8194
8192
8187
8183
8181
8179
8179
8178
8177
8174
8174
8175
8176
8176
8175
8173
8170
8169
8168
8167
8166
8166
8167
8168
8169
8169
8169
8168
8168
8169
8170
8172
8175
8179
8189
8205
8225
8249
8278
8317
8364
8417
8471
8530
8585
8631
8667
8687
8690
8674
8638
8586
8528
8469
8410
8358
8312
8269
8232
8204
8182
8168
8158
8153
8152
8151
8150
8148
8146
8144
8141
8140
8139
8138
8138
8138
8137
8136
8135
8135
8134
8134
8133
8134
8134
8135
8136
8138
8138
8139
8141
8142
8141
8140
8141
8144
8145
8146
8147
8148
8149
8149
8147
8145
8145
8146
8147
8146
8146
8147
8149
8151
8153
8154
8156
8158
8159
8159
8158
8156
8154
8155
8157
8159
8162
8164
8168
8171
8170
8168
8167
8168
8171
8172
8172
8171
8171
8171
8174
8178
8180
8181
8181
8182
8182
8181
8182
8184
8188
8194
8198
8198
8198
8197
8196
8196
8198
8201
8202
8201
8202
8202
8203
8203
8204
8206
8207
8207
8208
8210
8210
8209
8209
8209
8207
8206
8208
8211
8214
8215
8213
8208
8205
8202
8198
8194
8193
8192
8192
8190
8187
8183
8179
8176
8173
8170
8168
8168
8169
8169
8169
8166
8163
8162
8163
8164
8166
8167
8168
8167
8167
8168
8168
8164
8159
8157
8156
8155
8154
8153
8152
8152
8152
8152
8152
8152
8153
8155
8157
8158
8160
8161
8161
8162
8162
8162
8162
8163
8162
8162
8163
8165
8165
8163
8160
8160
8161
8163
8165
8165
8165
8166
8168
8168
8168
8167
8167
8166
8166
8167
8168
8168
8167
8169
8172
8175
8176
8174
8170
8167
8168
8169
8169
8169
8171
8174
8177
8180
8180
8180
8179
8175
8173
8171
8170
8172
8174
8174
8172
8171
8172
8173
8174
8174
8174
8173
8173
8173
8172
8171
8170
8171
8173
8172
8173
8174
8176
8176
8176
8175
8175
8175
8175
8175
8176
8177
8176
8176
8175
8174
8175
8176
8176
8178
8178
8178
8181
8183
8182
8182
8182
8181
8179
8177
8176
8174
8173
8172
8171
8171
8171
8174
8178
8183
8188
8196
8203
8206
8204
8200
8194
8189
8188
8189
8190
8191
8192
8193
8195
8195
8194
8193
8192
8192
8195
8199
8202
8202
8202
8201
8199
8197
8195
8194
8194
8193
8192
8188
8185
8184
8182
8181
8181
8181
8180
8180
8179
8177
8175
8174
8173
8173
8173
8173
8172
8171
8171
8170
8171
8174
8178
8180
8179
8177
8176
8176
8174
8173
8174
8179
8189
8205
8229
8259
8293
8337
8386
8436
8490
8547
8603
8650
8682
8697
8698
8681
8646
8593
8530
8463
8401
8348
8301
8260
8225
8198
8181
8173
8170
8169
8166
8162
8158
8154
8151
8146
8141
8138
8138
8139
8140
8139
8138
8135
8132
8130
8128
8128
8128
8127
8129
8133
8135
8137
8137
8137
8137
8135
8135
8135
8136
8137
8138
8139
8140
8142
8143
8143
8142
8142
8143
8145
8148
8149
8151
8152
8153
8156
8157
8158
8158
8157
8157
8157
8156
8158
8161
8163
8163
8163
8162
8160
8158
8157
8156
8156
8156
8159
8164
8168
8170
8168
8167
8168
8170
8173
8176
8177
8177
8178
8179
8180
8181
8183
8185
8188
8193
8196
8196
8194
8191
8192
8196
8200
8205
8207
8206
8203
8202
8202
8201
8201
8201
8199
8197
8197
8198
8200
8203
8205
8206
8207
8208
8208
8207
8205
8204
8203
8204
8204
8201
8196
8192
8188
8184
8182
8181
8180
8178
8176
8175
8175
8175
8175
8171
8168
8165
8164
8163
8163
8165
8166
8164
8159
8154
8151
8150
8150
8151
8154
8156
8158
8159
8160
8161
8163
8162
8160
8158
8155
8153
8153
8154
8155
8157
8160
8161
8162
8163
8163
8163
8161
8161
8163
8163
8162
8160
8159
8160
8160
8160
8160
8161
8164
8167
8168
8166
8162
8160
8162
8165
8167
8168
8169
8166
8161
8157
8155
8156
8158
8160
8163
8167
8169
8169
8170
8172
8174
8174
8172
8171
8171
8173
8176
8177
8177
8176
8174
8172
8172
8174
8177
8180
8179
8177
8173
8169
8166
8164
8162
8162
8163
8165
8166
8167
8168
8169
8169
8169
8171
8174
8176
8174
8170
8167
8165
8165
8166
8170
8174
8176
8176
8176
8175
8175
8174
8174
8175
8174
8172
8169
8168
8168
8169
8170
8170
8168
8167
8168
8170
8173
8175
8176
8175
8175
8174
8175
8177
8177
8177
8177
8178
8181
8185
8191
8197
8202
8205
8204
8201
8200
8199
8199
8201
8201
8199
8196
8194
8196
8201
8204
8204
8202
8198
8194
8190
8189
8193
8195
8192
8185
8180
8177
8175
8174
8174
8174
8174
8173
8171
8169
8167
8167
8168
8171
8175
8179
8181
8182
8181
8182
8183
8182
8181
8178
8173
8167
8161
8159
8158
8156
8157
8161
8168
8182
8203
8226
8254
8288
8331
8381
8435
8491
8549
8602
8643
8670
8681
8674
8649
8608
8556
8500
8440
8383
8334
8290
8253
8222
8198
8181
8173
8169
8168
8169
8167
8164
8161
8160
8158
8153
8148
8143
8137
8131
8127
8125
8125
8126
8128
8130
8132
8133
8133
8131
8129
8128
8129
8129
8129
8128
8129
8132
8133
8135
8137
8137
8135
8135
8136
8137
8139
8139
8139
8140
8143
8146
8147
8146
8144
8144
8144
8143
8142
8143
8145
8146
8148
8150
8152
8154
8158
8161
8162
8162
8161
8160
8159
8159
8160
8160
8161
8163
8166
8169
8171
8173
8175
8178
8181
8182
8182
8182
8182
8184
8183
8182
8181
8182
8183
8186
8189
8192
8194
8197
8201
8205
8210
8212
8210
8207
8204
8202
8202
8204
8208
8212
8213
8213
8213
8211
8211
8211
8207
8201
8197
8194
8192
8192
8193
8196
8197
8197
8198
8196
8191
8183
8178
8176
8180
8186
8193
8199
8205
8202
8189
8176
8166
8161
8160
8162
8164
8163
8161
8156
8150
8147
8146
8146
8146
8146
8146
8149
8151
8153
8152
8151
8150
8151
8153
8158
8161
8160
8156
8152
8149
8148
8149
8151
8151
8151
8152
8153
8154
8154
8153
8154
8155
8155
8154
8154
8153
8152
8151
8151
8153
8155
8157
8157
8159
8162
8166
8168
8168
8167
8165
8164
8164
8164
8165
8166
8166
8165
8164
8164
8165
8166
8166
8167
8167
8169
8170
8172
8174
8178
8182
8186
8188
8184
8179
8176
8175
8174
8174
8173
8171
8168
8166
8166
8169
8172
8174
8175
8176
8174
8173
8173
8173
8174
8173
8168
8163
8160
8164
8169
8174
8180
8183
8183
8182
8182
8181
8179
8176
8173
8171
8167
8163
8162
8162
8162
8163
8163
8165
8168
8171
8174
8176
8177
8177
8176
8176
8175
8175
8176
8178
8180
8182
8185
8188
8189
8188
8187
8186
8188
8192
8195
8197
8198
8197
8197
8199
8201
8203
8207
8211
8215
8219
8221
8218
8212
8206
8202
8201
8200
8197
8192
8185
8178
8171
8167
8167
8167
8168
8169
8168
8169
8171
8172
8173
8174
8173
8172
8173
8175
8173
8170
8166
8164
8165
8166
8167
8169
8172
8174
8176
8176
8174
8172
8175
8184
8199
8216
8239
8269
8309
8357
8410
8464
8520
8573
8616
8645
8659
8660
8646
8613
8563
8503
8440
8380
8328
8285
8249
8220
8197
8179
8167
8161
8157
8156
8155
8154
8154
8154
8154
8153
8153
8152
8149
8146
8145
8143
8140
8139
8140
8141
8141
8142
8143
8144
8144
8145
8147
8149
8150
8151
8151
8150
8147
8146
8147
8149
8149
8150
8154
8158
8158
8155
8151
8145
8144
8146
8147
8147
8146
8144
8142
8140
8138
8137
8140
8143
8146
8148
8152
8156
8159
8161
8163
8168
8174
8179
8179
8178
8178
8178
8178
8181
8181
8178
8174
8172
8170
8170
8171
8173
8175
8176
8179
8182
8186
8190
8193
8195
8196
8196
8196
8195
8196
8199
8201
8205
8207
8209
8210
8209
8207
8205
8202
8202
8203
8205
8205
8202
8200
8202
8203
8205
8205
8205
8206
8207
8210
8212
8210
8207
8203
8201
8200
8199
8197
8195
8193
8191
8188
8187
8187
8185
8184
8183
8183
8184
8185
8185
8182
8178
8175
8172
8168
8164
8160
8157
8155
8154
8154
8155
8156
8158
8160
8161
8161
8162
8161
8160
8158
8157
8155
8155
8157
8161
8162
8162
8162
8162
8162
8161
8161
8163
8167
8168
8166
8163
8161
8162
8161
8159
8159
8160
8163
8165
8166
8166
8165
8164
8163
8165
8167
8169
8170
8169
8167
8166
8167
8170
8174
8177
8177
8175
8173
8172
8173
8173
8174
8176
8175
8174
8172
8171
8171
8172
8173
8173
8173
8171
8168
8163
8162
8165
8167
8168
8170
8171
8171
8170
8169
8169
8170
8171
8173
8176
8179
8179
8178
8177
8176
8175
8174
8175
8177
8179
8180
8179
8177
8175
8175
8176
8176
8177
8177
8177
8176
8176
8175
8174
8174
8176
8179
8182
8184
8186
8186
8187
8186
8185
8185
8183
8181
8180
8179
8181
8184
8186
8185
8184
8187
8193
8196
8197
8198
8201
8202
8202
8201
8199
8200
8204
8207
8210
8210
8210
8212
8215
8216
8212
8203
8194
8186
8182
8179
8179
8180
8180
8179
8179
8180
8180
8180
8179
8177
8174
8173
8173
8173
8172
8170
8168
8168
8168
8169
8170
8170
8168
8166
8166
8167
8170
8172
8174
8176
8180
8188
8203
8224
8251
8283
8323
8371
8425
8483
8542
8596
8638
8664
8677
8674
8655
8619
8569
8511
8449
8390
8337
8292
8255
8224
8202
8187
8178
8173
8169
8164
8160
8155
8150
8147
8144
8143
8142
8142
8142
8142
8141
8141
8139
8136
8135
8136
8136
8136
8137
8139
8141
8142
8144
8145
8146
8145
8144
8144
8141
8140
8142
8144
8146
8146
8146
8146
8148
8150
8148
8144
8141
8142
8142
8143
8144
8143
8142
8140
8140
8143
8146
8151
8155
8156
8155
8155
8155
8157
8160
8161
8162
8162
8163
8164
8164
8165
8166
8168
8169
8170
8170
8170
8172
8174
8177
8182
8186
8187
8186
8186
8187
8187
8189
8193
8196
8197
8196
8197
8199
8201
8202
8203
8203
8203
8201
8200
8200
8201
8201
8202
8202
8202
8203
8205
8208
8210
8211
8211
8208
8203
8200
8199
8198
8198
8199
8200
8199
8199
8200
8201
8201
8200
8198
8195
8192
8190
8189
8188
8186
8183
8179
8176
8172
8170
8168
8166
8165
8165
8164
8161
8158
8154
8151
8149
8149
8151
8155
8158
8161
8162
8159
8157
8157
8155
8155
8156
8155
8155
8157
8158
8158
8157
8155
8154
8156
8158
8161
8162
8162
8162
8161
8161
8161
8161
8162
8161
8160
8159
8160
8161
8162
8163
8165
8165
8165
8164
8164
8162
8163
8165
8170
8173
8174
8172
8170
8170
8172
8173
8172
8172
8173
8173
8173
8173
8171
8171
8170
8169
8169
8169
8170
8171
8172
8173
8172
8171
8172
8175
8182
8187
8186
8183
8180
8178
8177
8176
8173
8169
8168
8168
8167
8168
8169
8169
8169
8169
8170
8172
8174
8174
8175
8174
8174
8173
8172
8171
8171
8173
8176
8178
8180
8181
8181
8180
8179
8178
8176
8174
8173
8173
8173
8173
8173
8174
8174
8175
8178
8182
8186
8189
8191
8192
8192
8191
8189
8189
8191
8193
8194
8197
8200
8202
8204
8204
8204
8204
8204
8204
8203
8202
8203
8204
8202
8197
8193
8189
8187
8186
8185
8182
8179
8177
8176
8177
8179
8180
8178
