ECG (1000 Hz)
35533
36006
35791
36845
35715
37161
36133
37529
35101
37037
34579
35791
34247
34446
35881
34872
35027
35099
34386
34697
34556
33308
34837
34028
34649
33860
33548
34202
32541
34022
32335
32248
31036
32328
30933
32212
31623
32221
33488
32340
31303
31306
31175
29827
30763
30176
31594
30986
30174
30847
30089
29896
28798
30487
28687
30476
29515
30196
28663
29229
29301
28437
28387
28934
28039
27865
28793
28130
29239
28600
29126
30046
27637
29589
28348
28054
28288
28427
27110
30639
28840
28255
28537
27925
27925
28428
27660
28381
28008
28502
28735
29673
28091
28696
27825
29180
27979
28745
28022
27324
28879
27942
28737
28476
29606
32235
28247
28765
28568
29049
28591
29315
28342
31273
28632
29356
27339
29264
28087
28812
27519
28876
28307
29589
29725
29239
29368
29484
28829
29408
25174
29158
28275
29911
28056
30250
28403
30837
25756
28860
28120
29848
29171
29793
29005
29866
28940
29180
27757
28882
28868
29358
28659
29460
28876
29513
29029
30942
28082
30792
27853
29669
26669
27328
28950
29190
28424
29752
28199
29421
27975
27480
28753
29007
29199
29661
28563
30098
28767
30096
28583
28523
27217
29875
27372
29804
28138
29994
31119
30078
28509
29437
28161
28757
28302
28567
29788
30532
28629
29593
28047
29331
27633
29484
27764
30023
28439
30272
27877
29666
28109
28881
27602
29472
27761
28577
28198
28850
28981
29412
29211
31154
27247
30016
28224
29953
28485
29550
28331
30472
27392
29611
27027
29384
27777
29068
27899
28685
28321
29494
30204
27751
29389
27294
29865
27651
29337
28094
27883
28248
27608
27608
28034
29026
29348
32486
28403
29324
28543
28935
28177
29778
28506
31966
28789
30247
27901
29957
28680
29959
29116
29900
29392
31098
30588
30332
30900
30832
30757
30590
27472
30413
30066
30690
30207
30733
29771
31449
27796
30545
31043
31341
31326
30932
31123
30714
30923
30920
30020
30031
31727
31318
32192
31134
32589
32091
32978
33313
31934
32995
32401
32442
30741
28954
32231
31240
31251
31661
31343
30696
30848
28566
30860
30206
31293
30740
30337
29993
29879
30296
29580
28351
27947
29530
27158
28988
28759
29272
31866
28886
28749
27995
28259
27524
28447
26757
30813
28822
28506
28092
28132
28468
28037
28552
28118
29402
28691
29456
28469
29288
28451
29217
28165
28989
27953
27810
28681
28104
29037
29160
29767
31462
27588
30123
28599
29584
28447
29622
28868
31264
28145
29636
27803
29639
28167
29468
28149
29115
28589
29944
29886
29737
29576
29593
28278
29052
25083
28216
26740
28664
26493
28589
26007
28610
24346
26901
28608
27952
28912
28062
30840
29688
33644
32317
35032
34892
38352
38352
39101
42926
43905
47525
49925
54112
55927
58321
60235
62349
64415
64478
64430
64483
64433
64440
64429
64456
64379
62398
56334
54892
52073
49784
46894
43784
40711
36169
31919
29477
25851
24637
24651
24512
24522
23702
24387
24932
25072
26727
25199
27619
26384
27682
25901
25491
28241
28760
28012
29609
28698
29308
28614
27248
28621
29674
30134
29751
29157
29896
29025
29179
28817
28508
27458
29427
27545
29398
28311
29585
31282
29987
28831
28600
28437
28381
28836
27708
30711
29677
28437
28858
28843
29398
28448
29112
28924
29402
29371
30566
29458
30335
29110
30335
29084
29862
29134
28716
29828
28654
29780
29710
30926
32696
28991
30399
29462
30551
29860
30566
29917
32385
29557
30682
28658
30457
29751
30118
29175
30272
29838
31096
31288
31132
30910
30938
30650
30325
26979
30180
30099
31255
30422
32045
29998
32260
28127
30314
30170
31532
30797
31157
30815
31171
30776
30740
29751
30473
30647
30969
30837
31394
30778
31536
32429
31770
31465
31791
30853
31215
31381
30119
31768
31113
32356
31042
31042
32264
30877
33088
30487
32573
31677
32730
31661
32586
32033
32616
31759
32892
31071
31783
31829
32236
32874
32156
31903
32736
31781
33640
31490
33339
32063
33204
30915
30077
31533
32445
31801
33417
32274
32828
32412
31062
32566
33756
33617
33867
33501
34606
32981
33692
32755
33069
32077
34090
32166
34477
32403
34664
35410
34760
33475
34088
33150
34147
33842
33048
35447
34868
33750
35018
33547
35065
32966
34944
33609
35314
34652
36457
33427
36091
33120
36484
33943
35880
33984
34888
34540
34849
34405
36063
35770
39016
34634
36424
35236
36146
34414
36859
34931
38121
34823
36073
33596
36216
34049
35848
33844
35992
34774
36746
35506
36360
35240
35876
34507
35201
31010
35112
33366
35392
33542
35064
32722
35595
30366
33437
32579
33871
32404
33220
31742
33408
31873
32595
30086
31360
30931
31656
30787
31213
30321
31255
30474
32029
29072
31505
28937
30577
27590
27172
29065
28938
28336
29600
28122
29214
28431
26672
29498
28935
29257
28431
28718
28791
28064
27812
28484
27506
27277
28735
27418
27418
29184
27534
29016
28088
27744
28634
27910
28280
27827
27864
27181
25922
27563
27821
27707
27396
28279
27316
28552
26488
28309
28252
29410
28385
29311
28420
28170
27512
27383
26818
27283
27646
27505
28590
27879
28593
29156
27835
28042
27109
27868
27672
28567
26779
29722
27922
28052
27967
27975
28148
27858
28154
28195
28136
28733
29239
28322
28928
27432
28912
27759
28308
27678
27326
28614
27634
28270
28444
29725
31728
29109
28958
28872
28621
28117
29522
28174
31576
28581
29456
27405
29502
27922
29184
27937
29627
29002
30588
29199
29795
28992
29594
28835
29705
26263
29868
28006
30394
28479
30486
27973
31473
26682
29705
28521
30114
28488
29930
28889
30048
28491
30238
27877
28891
28911
29715
29402
29274
28983
29620
28922
30129
28085
30493
28513
29434
26962
25848
28290
28817
27821
29516
28305
28792
28400
26712
28338
29253
29382
29420
28999
29544
29127
29415
28794
28496
27814
29490
27603
29332
28276
29083
31334
29793
29392
28451
29644
28445
29038
28021
28974
27705
29427
27774
29234
29234
28498
28486
29061
27817
28821
28975
29759
29300
29147
29258
28732
28946
27404
27948
28259
29092
28245
29670
28387
29876
28622
28912
28849
28620
28756
28964
29057
27982
29590
28542
28399
28474
28959
29329
28497
29372
28545
29041
29762
30407
28282
29917
27823
30126
28533
29548
29937
29600
29757
29364
29677
30402
30841
32141
31167
31481
31102
30900
30113
31804
30199
33032
30756
31319
29472
30606
29266
30214
30168
30708
31364
32274
31202
31098
31707
30725
31301
31124
29588
31439
30790
31821
30615
31841
30727
33604
30399
33189
31945
32900
32138
32608
32140
32872
31543
32332
30299
31129
30999
31268
31943
31753
31419
31585
30084
32384
30115
31490
29545
30902
28229
27306
28601
29664
28407
29798
29026
29177
29003
27750
28530
29967
29617
29228
28464
29732
28884
29043
28082
27979
27812
29170
27646
29548
28157
28545
29780
29830
28739
28573
28175
28698
28690
27485
29943
28528
27694
28429
27667
28908
27451
28452
27609
29356
29432
29447
29604
28970
29376
28725
29271
26141
28601
27510
29583
28430
28430
30303
27847
30452
26701
28712
28178
29541
28094
29460
27991
28117
27701
27452
26176
27017
26284
27105
25923
28068
26407
27187
27313
29256
26585
29821
27327
30710
28783
32185
33807
36140
37469
40402
41170
45010
45743
50262
51655
54924
56791
61326
61475
64483
64599
64521
64560
64485
64423
64508
64436
64450
60578
58962
56427
54170
49670
47818
44583
40566
36796
32627
29079
27590
24599
25566
23085
24367
21905
25124
22677
26273
24695
26761
25328
26725
25975
27380
26711
28628
26869
28384
28242
28601
28748
29072
28727
30122
27338
29607
27667
29489
27535
28896
27515
27151
26985
28532
26838
28308
27792
28280
28140
27194
27837
28944
28831
28972
28804
28710
28079
28494
27502
27425
27430
28704
27557
29329
28445
28712
29160
28484
29025
28385
29055
28850
29312
27141
29807
28262
29011
28242
28893
28512
28847
28577
29514
28813
30565
29810
29257
29580
28402
29110
28930
29116
30055
28110
29807
28280
29783
29189
30733
31790
28758
29320
29526
29461
29359
29484
29440
29710
28884
28538
29009
29157
29087
29087
29094
30531
29619
30265
30317
31213
29436
30872
28744
30651
28423
28440
30699
29662
29555
29856
30075
30234
30111
29614
30931
30792
31283
31032
30750
31536
29817
31528
30667
31140
29330
31040
29610
31570
30487
31504
32724
32589
30993
31430
31134
30840
30951
31260
32637
32803
31611
32428
31359
31966
31137
33430
31589
34110
32079
33706
32009
33524
31854
32947
31639
33274
31411
32029
32190
32449
32735
33011
32736
34138
31337
33745
31971
33672
32338
33446
32101
32680
31469
33575
32185
33400
32490
33031
33274
32901
33319
33746
33964
33663
33744
33916
33188
33633
31786
33485
32585
34392
33139
35354
33415
35197
33007
33991
34086
34301
33893
34615
34425
33557
34651
34175
33707
34514
34493
35441
34341
36050
34932
35532
35461
36600
34315
36383
33660
35276
33705
35138
35074
34293
34799
35102
35054
35459
35407
37030
35872
35872
35412
35494
34383
35758
33782
36166
34065
34093
32799
34028
32967
33571
33156
33474
33485
32961
34540
32190
33954
31491
33111
30467
29623
32041
31297
31082
31866
31866
30493
30707
29935
29239
30458
30818
30742
30352
30051
30460
29358
30646
29839
29012
27780
29572
27873
29633
28523
29122
31168
29636
28862
28595
28494
28216
28534
27476
30125
29414
28453
28433
27914
28368
27629
28672
27800
29376
28631
29305
28099
28589
27986
27816
27497
28197
27209
27772
28930
27258
28700
28491
28896
29760
26899
29274
28243
29064
28313
28543
28388
29471
27458
28546
27319
28430
27959
28154
28461
27677
28341
28904
28968
28558
29046
28820
28007
28364
25957
27904
27301
29254
27862
29568
27688
29716
26404
27736
27937
28928
28148
28484
28465
28532
28957
27712
27622
27996
27719
29196
28498
29760
28529
29288
28873
29904
28323
29788
27306
29780
27521
27819
28636
28554
28192
28629
27597
28573
28354
29012
29204
29400
28999
29372
28172
29744
27345
30280
28041
28920
27163
29201
27184
29210
27873
29440
29380
30451
28575
29098
28173
28280
28079
28754
28291
29906
28003
30056
27776
29424
27364
30245
26783
30302
29196
28735
29392
28019
29456
28604
29555
27799
28482
26521
29460
26342
26342
29156
27052
29308
30331
29892
28156
28594
27582
28523
27738
27700
29754
29720
27560
29096
27572
29168
27280
28732
27682
29344
28428
30460
27989
29761
27777
29377
27890
29148
27483
28251
28618
28064
28127
29189
29311
31782
27118
29765
28391
29104
27995
29413
28188
30840
27883
28969
26911
29295
27733
28514
27202
28377
27773
29280
29134
28792
29236
29020
28272
28522
24734
28488
27735
29127
28388
29488
27931
29764
26031
27743
28326
28636
28787
28745
29239
28558
28947
28033
27571
27759
29239
28263
28861
28814
29005
28555
29244
29755
28651
29346
28149
29096
27889
27163
30085
28167
29265
29056
29313
28951
29967
28576
30247
29866
31681
30282
30914
30634
30310
31029
30550
29755
29066
30786
29707
30352
30310
30960
32931
31201
30743
30073
30577
29261
30829
29329
31581
31218
30568
31028
30720
30842
29879
31263
29928
31858
30934
32042
30808
31853
31215
31410
30800
32276
31061
31460
32010
31500
32343
32461
32435
33792
32828
31453
31976
30827
31583
31135
30326
32753
32010
30244
31209
30061
31060
31060
29340
30995
29456
30442
29824
31296
28923
30809
28737
31084
28714
30680
28494
28828
29059
28694
28532
29352
29875
32706
28438
30038
29032
29328
28465
29813
28848
31817
28515
29328
27459
29240
28052
29073
27851
29296
28444
30102
29580
29542
29489
29218
28642
29097
25169
29061
27862
29972
28601
30153
27989
31049
26252
28848
28636
29472
28988
29749
28874
29824
29041
29139
27550
28752
28964
29148
29050
28223
28349
28470
27972
28953
26629
28137
26087
27288
25229
25013
27186
27134
26872
28581
28414
29804
29829
29588
32325
34734
36614
38583
40416
43448
45216
47865
49118
51835
53409
58700
58464
62566
64065
64538
64479
64480
64469
64520
64451
64456
64464
64552
62994
58337
55136
51537
48987
46282
42967
39463
35310
32056
28775
27150
25551
25470
24124
23948
24255
25112
24601
24986
26389
26124
27450
27740
29244
31166
28135
29979
29145
30232
29334
29963
29091
31542
29414
30336
28528
29962
28840
29850
29036
29140
29450
29759
30566
28747
29897
27925
30068
28478
29667
28979
28748
29251
28920
28920
29192
29220
30130
32866
29751
30201
29653
30102
28912
30619
29369
32296
29711
29873
28360
29824
29017
29642
28871
29955
30133
30964
30101
30158
30191
30432
30039
30305
26953
30343
29583
30903
29844
31076
29252
31976
27751
30182
29919
31282
30096
30978
30354
31260
30085
30990
29166
29976
30347
30438
30389
30430
30289
31083
30461
31582
29757
31980
29826
31184
28550
27728
30134
30864
29841
31178
30395
30990
30279
28904
30543
31503
31364
31795
31037
31898
31135
31948
30839
30982
29534
31833
29691
32126
30444
31890
33588
32710
30979
31592
30485
31624
31137
30771
32933
33204
31072
32092
31032
32332
30644
32330
31037
32818
32000
33550
31282
32786
30957
33017
30954
32728
30964
32109
31813
32517
31839
33353
32922
35808
30839
34228
31812
34210
32049
33976
32488
35616
31874
34111
31559
34201
32388
33700
32033
33770
32476
35055
33997
34307
33523
34506
33340
34449
30058
34601
32311
35344
33208
35560
34569
34307
37508
34167
35525
34004
35120
33623
35981
33490
37312
34195
35404
33006
35345
33530
35085
34084
35546
35234
36376
35232
35320
35207
35315
35213
35551
33116
35812
34926
36060
34934
36085
36085
35021
37189
33933
35717
35982
36320
35587
36143
36169
36136
35831
36284
35041
34760
35819
35032
36482
34912
35399
35184
35343
35815
34980
35472
34689
34738
33192
30560
34138
33016
33767
33538
33707
32690
33539
30495
33114
32360
33626
32442
32762
32160
32631
31559
31671
30578
30255
31099
29856
30964
30087
30593
32843
30515
29943
29025
29777
28861
30043
27688
30918
29566
29055
29136
28640
29010
28426
28234
28492
28670
29596
29606
28757
28926
28092
29133
28457
28611
28358
27492
29111
27853
28662
28381
29514
31828
27770
29092
28527
28652
27855
29400
28513
31311
28130
29476
27223
29306
27885
28506
27329
29051
28428
29964
29655
29520
29132
29741
28369
29645
24951
29547
27619
30098
28016
30693
27895
31052
25982
28713
28096
29778
28385
29896
28523
30408
28783
29003
26924
29231
28626
29228
29088
28321
29442
29643
30276
29392
29334
29505
28710
28631
29053
28319
29960
28695
29904
28437
29473
28224
31042
27192
30031
28772
29944
28711
29666
29132
29581
28681
30046
27672
28904
28950
29193
29905
29457
29554
29808
28583
30607
28054
30872
29412
30047
27895
27248
28537
29317
28344
29206
29104
29370
29343
27711
29012
29804
30002
30167
29921
30187
29214
29916
28849
28928
28197
30004
28360
30378
30378
28969
30074
30766
29990
29397
29216
29141
29490
29450
28118
30547
29341
28687
29532
29036
29720
28812
29345
28927
29267
29835
30699
29020
30118
28465
30334
28669
29762
29376
28584
29674
28625
29291
29344
30549
32789
29503
29831
29280
29634
29610
30479
29678
32338
29959
30561
28983
29907
29432
29987
29215
30188
30373
31348
30791
30258
30396
30320
30341
30271
26778
30371
29408
31036
30269
31372
29367
32123
27712
30130
30052
31037
30424
30912
30549
31079
29884
30701
29213
29700
29859
30456
30439
29699
29990
30802
30187
31696
29493
31415
28935
31168
28631
27860
30107
30108
31316
30148
30822
29608
32031
29692
31562
30291
31421
30249
30832
30094
29597
29931
30896
29117
29907
30116
30273
31006
30892
30732
31483
29180
31667
29518
31257
29909
31120
29256
29503
28990
30508
29068
30305
29726
30348
30593
29286
29835
30703
30800
30941
30388
31292
29815
30817
29123
29938
29158
31176
29335
31717
29650
31385
30167
30617
30001
30438
29853
31124
30146
29753
30833
30728
29586
30698
29503
31106
29555
31522
29406
31046
30648
32076
29491
31724
28788
31309
29264
31320
30067
30864
30300
30796
29751
31308
31138
34358
31260
32876
31094
32428
30967
32852
30305
35012
31064
32684
29965
32696
30655
32519
32519
31092
32663
31610
33790
32103
32709
32039
32118
31231
32486
29408
32461
30896
32730
30443
32396
30581
33707
29615
32630
31437
32865
31542
32792
32023
33124
32022
34054
31425
32552
32580
32941
32790
32572
32308
33065
31830
33822
31101
33740
31564
32788
29967
29149
30488
31740
30363
32104
30283
30474
29934
28673
29443
30586
30812
30520
30319
30668
29795
30174
29356
29125
28908
30039
28971
29803
29592
30318
30992
28421
30446
29868
30261
30025
29620
29751
29918
29187
29724
28661
29480
29706
28961
30542
28722
30024
29642
30999
29595
30597
29977
30359
29666
28452
29100
29351
29969
29723
31049
29557
30737
28528
29170
29455
30159
29931
29972
29895
28993
30429
29186
28903
28994
29111
29502
28829
29907
28627
28561
28529
28747
26790
28430
26215
28549
26676
27528
29021
28506
29911
30148
31061
32706
34091
36378
38324
40513
42817
44821
46288
49537
49971
55549
55922
59394
60047
64660
64585
64645
64580
64668
64555
64664
64547
64684
64485
64576
61858
58047
55181
52073
48103
46820
42917
39876
34827
33061
27671
28035
25087
27069
24925
26859
26133
27131
26629
28930
26846
29440
29857
30704
31089
31386
30935
32252
29626
32357
30289
32152
30373
31252
29384
29338
28663
30298
28898
29984
29469
29756
29756
30019
28696
29415
30036
30347
30250
30165
30492
29115
29844
28451
29054
29035
30260
28893
31037
29090
30480
29647
29704
29674
30257
30606
30023
29796
28974
30660
29736
29373
30141
30520
29399
30047
29315
30620
29667
31073
30815
30499
30621
30660
30215
30198
27071
30486
29493
31025
29735
31656
29612
31936
27506
29886
29902
30916
30282
31251
30348
31144
30595
30264
29472
30481
30568
30717
30213
31657
30558
31168
30888
32200
30213
32198
29834
31520
29413
29389
31783
30654
30575
31185
30460
31530
30719
30349
31368
32078
32099
31968
31527
32317
31315
32710
31399
31012
30198
32194
30537
32126
31185
32377
33976
32832
32321
32154
31813
31492
31982
31563
33839
33303
31967
32445
32001
32682
31904
33258
31854
33899
33169
33716
32542
33364
32854
32568
32825
33477
32485
32585
33367
32752
34065
33400
33847
35192
32339
34378
33138
34472
33583
34116
33312
34840
32705
34160
32506
34272
33130
34001
33898
34018
33684
34966
35097
35162
35044
35002
34191
34468
32172
34423
33703
35539
34383
36356
34334
36130
32970
34768
34915
35740
34603
35799
35150
35154
35479
34933
34612
35010
35250
35713
34895
36536
35558
36136
36149
37128
35330
37057
34865
36718
35038
35728
36588
35976
35898
36359
37652
35668
35668
38633
33888
36436
36114
37109
36303
37171
36483
37384
35739
37245
34722
36184
35930
36505
35805
35844
35182
36190
35379
37052
34378
36934
34169
35870
32366
32080
33669
34567
33178
34732
32940
33886
32326
31510
31931
33398
32503
33190
31600
33120
31913
32719
30981
31303
29300
32085
29204
31793
29491
31675
33003
31683
29673
30460
28919
30000
29383
29027
31137
30990
29089
29762
28110
29860
27878
29725
27879
29998
28950
30880
28099
30023
27715
30182
27790
29496
27695
28637
28337
28572
28625
29219
29468
32098
27186
29805
28186
29006
27720
29544
28370
31288
27866
29692
26947
29218
27542
28948
27075
28816
27859
29614
29254
28953
28798
29202
28656
28920
25071
28696
27723
29395
28159
29768
27779
30215
25836
27991
28399
28940
28437
29066
28891
28956
28691
28446
27907
27972
28539
28332
28893
28728
28845
28743
29359
29994
28412
29462
28389
29098
27853
26479
29923
28012
29093
28643
29136
28643
29315
27122
29878
29114
30307
29320
29713
29631
29686
29438
29394
28123
28189
28767
28362
28721
28624
29874
29250
28846
30037
28767
29756
28762
29327
27527
26012
28308
28895
28281
28804
28874
28366
28366
29149
26822
28619
29004
29693
29412
29591
29400
28708
29060
28570
28048
27817
29149
27997
29699
28711
29473
30594
29601
29211
28800
28859
28687
29073
27623
30382
29302
28503
29446
28465
29402
28528
29473
28886
29604
29333
30906
28471
30476
28163
30506
28611
29965
28927
29090
29239
29152
28909
29825
30273
33205
29167
30742
29326
30261
28929
30522
29053
32306
29135
30005
27919
29556
28480
29480
27634
29963
28953
30645
29764
29533
29299
29621
28799
29450
25954
29504
28381
30249
28824
30318
28186
31032
26636
29275
28827
30063
29115
29889
29356
30349
29062
30181
28137
29116
29047
29748
29444
29168
29459
29664
29538
31058
28706
30825
28928
30028
27611
26520
29350
29045
28791
29836
28955
29570
28949
27360
28861
29476
30005
29901
29494
30182
29841
29971
29285
29188
28328
30017
28518
30071
28963
30043
32118
30159
29782
29502
29097
29280
29724
28552
31162
30784
29090
29495
28938
29693
28930
29388
29232
29912
30172
30432
30282
30061
30382
29469
29854
27966
29213
28985
30075
28915
30862
28945
28945
30424
28811
29393
29453
29893
29589
30081
29731
28949
30330
29240
28920
29405
29490
30208
29310
30523
29776
30084
30411
31110
29452
30988
28691
30479
28599
29432
30121
29415
29597
29319
29501
29845
29982
31172
30485
30384
30156
30669
29612
30525
29014
31632
29740
29949
28749
30009
28602
30316
29460
30308
30692
31178
30384
30104
30309
29277
30023
29629
29052
30679
29466
30651
29575
30394
29502
31347
28580
31082
29926
30920
29759
30624
30296
30125
29441
30500
28805
29356
29888
29844
30802
30194
30404
31091
29345
31701
29879
31512
30284
31186
29392
29334
29732
31364
30249
31348
30755
31458
31357
30150
31122
32182
32099
32745
31963
32889
31182
32590
30947
31783
30647
32735
30773
33016
30919
32327
32427
32046
31435
31836
31186
31898
31301
30476
31999
31535
30483
31905
30674
32234
30743
32580
31224
32959
32640
34181
31761
34069
31141
33976
31213
33135
31975
32320
31914
32053
31287
32677
32488
35497
31841
30608
32356
30237
32277
30287
31466
30168
30434
28535
30516
29224
30873
28804
28804
31357
29059
30668
29756
31785
28699
31106
27746
30296
27224
28461
29206
29503
28679
29790
28403
30108
28879
29309
29470
30556
29529
30402
29239
30296
28477
31030
28695
29543
27854
29888
28116
29852
28671
30120
30847
30968
29295
29929
29198
29104
28989
28993
30054
30685
29117
30206
28822
30307
28719
30583
28587
30952
29173
30636
28982
29949
28991
28945
28036
28829
27414
27226
27591
26748
27956
27437
28068
29026
26613
28863
28127
29648
29710
30652
30734
32403
32760
35532
36992
39745
41480
43569
46307
47336
50704
53964
57365
59252
61927
64466
64458
64506
64445
64646
64466
64632
64421
64648
64485
64650
60675
56757
54471
49556
47780
44961
42987
37020
35808
29496
27923
25382
25089
25297
25074
26240
26158
26785
28382
28862
27445
29820
28527
30240
29015
29796
30755
29501
30363
29852
30191
30159
30725
31113
30955
30143
30327
29978
29785
30115
28702
31156
29278
29474
28518
29654
28719
29302
29173
29784
29760
29775
30718
28846
30983
28769
30264
27912
27493
29692
29781
29122
30827
28901
30016
30016
29302
28533
29428
30917
30449
30706
29791
30946
30078
31142
29591
30064
28823
31151
28850
31138
29770
31111
32752
31729
30666
30865
30135
30369
30366
30265
32441
32322
30677
31446
30029
31149
29974
31576
30383
32066
31119
32292
30458
31586
30711
30952
30571
31439
30431
30431
30900
30602
31187
31074
31686
33618
29607
31980
31100
31752
30852
31626
31072
33032
30551
31953
30185
31674
30565
31268
30812
31457
31225
32328
32068
32036
32327
32333
31509
31822
29056
31478
30708
32745
31671
33420
31214
33184
29555
31752
31387
32644
31703
32850
32301
32225
32322
31817
31133
31986
32135
32555
32016
33344
32427
33244
32935
34432
32159
33940
31663
33538
31591
31826
33467
32760
32729
33320
32506
33350
32979
32895
33778
33862
33904
33956
33462
34368
32800
34900
33403
33554
32481
34320
32871
34220
33422
34464
35598
35336
34849
34336
34332
34026
34455
34024
35812
35744
34773
35571
34679
35341
34404
36041
33088
34760
35640
35991
35908
35438
36115
35392
35956
35480
35120
34470
36565
34642
36653
35477
35477
36602
38415
37104
36067
36186
36069
36032
36502
34945
38123
37381
36092
36688
36042
36754
36003
36817
36523
36992
37366
37859
36248
37310
35955
37774
36150
36825
35875
35477
36572
35240
36245
36044
37285
39080
35127
36328
35275
35261
34609
35496
34819
37048
34540
34620
32919
33900
33031
33265
32225
33097
32791
33734
33480
32622
32998
32436
31693
31704
27782
31488
30710
32176
30504
32066
29892
32533
27826
30098
29650
31120
29943
30583
30019
30777
29409
29938
28494
29479
29347
29867
29167
29684
29086
29658
29419
30770
28037
30821
27825
29940
27173
26978
28852
28903
27842
29650
27967
29173
28151
27747
28482
29509
29031
29590
28443
29840
28578
29658
28077
28665
26691
29554
27232
29534
27695
29704
30782
30372
28274
29288
27895
28831
28220
28435
29908
30501
28135
29578
27878
29357
27431
29749
27588
30337
28396
30601
27588
29887
28001
29574
27658
29930
27732
28718
28614
28986
29048
29763
29406
31989
29874
28479
29424
28400
29489
28709
28387
29727
29466
28231
29298
28380
29701
27998
27998
29778
28257
29422
29291
30556
28040
30267
27635
30070
27856
29540
28744
28763
29089
28494
28437
29378
29653
32296
29316
30057
28932
29432
28675
29925
28675
31668
29110
29625
27979
29060
28737
28866
28702
29064
29389
29923
30015
29240
29974
28680
29524
28864
27560
28850
29263
29321
29073
29314
28902
30387
27818
28695
29420
29328
29981
28810
30206
29496
29668
29653
29030
28140
29994
28914
30486
28592
29681
29177
29817
30286
29289
30492
29359
29651
27991
25831
28929
28880
28788
29135
28958
28644
28678
26753
28651
29095
29667
29293
29275
29661
29343
29352
28887
28174
27795
29356
27855
29548
28723
29376
31603
29774
29333
28832
28903
28912
29505
27712
31073
29869
29006
29021
28695
29476
28412
29356
28895
29578
29874
30860
28602
30108
28501
30685
28962
30178
28822
29159
29471
29324
29504
30305
30725
33511
29079
31177
29389
30347
29083
31014
29301
33160
29690
31184
28097
30904
29087
30332
28405
30491
30572
29791
31515
28958
31231
28194
30395
28327
29880
29783
29677
29347
29609
28882
29885
29959
30980
30375
30382
30254
30308
29342
30486
28670
31374
29462
29864
28440
30272
28863
29881
29299
29299
30192
30653
31237
30370
29956
30025
29209
29354
29554
29468
30730
29614
30627
29415
30301
29068
31288
28934
31077
29823
30846
29609
30271
30050
30188
29439
30541
28992
29232
29686
29967
30606
30166
30167
30849
29019
30989
29477
31056
29797
30412
28873
28316
28799
30051
29275
30206
29665
29824
30214
28752
29573
30430
30573
30424
30812
30768
29648
30512
29275
29408
29045
30666
29162
31048
29841
30835
30570
30327
30180
29958
30454
30424
29990
28968
31415
30077
29659
29908
29705
30364
29458
30246
29986
30165
30812
31497
29721
31183
29163
31037
29624
30724
30810
30196
30747
30340
30566
31180
31855
33840
31401
32122
31649
31748
31374
32584
31239
34172
31792
32124
30765
32292
31225
31832
31639
32377
32192
32749
32123
31691
32001
31527
31529
31628
29269
31828
30631
31944
30658
31753
30270
32941
29182
32083
32011
32359
32505
32043
33295
32063
33731
32230
32396
31329
33372
31669
33140
32474
33160
34436
33444
32583
32151
31808
31458
31887
31268
33326
32874
31340
32260
31417
31886
30609
32008
30571
32306
31221
31945
30439
31240
30587
30540
30274
30922
29683
30160
30468
29864
30790
30368
30558
32049
28887
31508
29765
31075
29799
31047
29478
31390
28645
30848
28694
30982
29474
30490
30152
30152
30118
29621
31208
30333
30800
30353
31275
29558
30584
27597
30272
28503
31106
29107
32125
28810
31768
27925
30400
29269
30982
29151
31272
29625
30066
29509
29542
28415
29763
28805
29810
27344
29681
27455
28754
27465
29308
26519
29576
26310
28888
26546
28897
29505
30295
30778
32646
32518
35881
36994
41091
41980
45017
45764
49336
50166
54968
55153
60694
60602
64337
64463
64589
64476
64416
64471
64562
64539
64509
64482
64605
60992
57368
54087
50353
47706
45658
42072
38506
33876
31149
27549
27864
24050
26482
25647
26567
25862
26835
26857
27634
27507
29454
28494
29496
30628
29763
30976
30386
30832
31087
30922
30972
29868
29862
29288
30866
28688
32352
30659
30615
29634
29789
29748
29775
29713
29862
30031
30971
30611
30111
29875
30060
30296
29850
30108
30061
28906
30662
29212
30692
29883
31557
32490
29487
30900
30354
30412
30275
30463
30558
32212
30032
30680
28763
30462
30260
30093
29602
30158
30203
31058
31174
30599
31231
31026
30457
30545
27107
30277
29783
31059
30280
31860
30274
32110
28161
29934
30119
31122
30524
31156
30908
31436
30836
31133
29748
30937
30701
31638
30935
32287
31081
32251
31539
33088
30298
32956
29868
32432
29796
30087
31883
31820
30831
32209
30914
32356
31102
31102
31118
31807
32690
32387
32591
31412
33099
31495
33219
31655
32132
30825
33191
30848
32696
31646
33324
34745
33702
32722
32696
32172
31896
32335
31713
33956
33533
32797
32657
32461
32740
32031
33121
32127
34089
33235
34150
32582
33253
32622
32966
32536
33271
32578
32465
33022
32544
33819
33467
34229
35536
31935
34655
33166
34316
33577
34025
33339
35174
32817
34398
33047
34128
33315
33820
33966
33777
33948
34833
34897
34772
34845
33539
35171
33887
35004
34509
34205
34738
34264
34698
34746
36065
38203
35130
36016
35313
34920
34888
36168
34970
37776
35312
36067
34434
35679
34833
35714
35053
36134
35945
36946
36554
36237
36656
36389
36064
36507
33351
36612
35866
37226
36151
37310
35539
38516
34657
36859
36367
37458
36779
37290
36542
37304
36203
37406
35383
36153
36206
36564
36582
36010
36241
36806
36102
37280
35042
37130
34896
36189
33399
32264
34722
34752
33809
34718
33889
33996
33523
31620
32863
33547
33828
33509
33045
33288
32909
33058
32445
31639
30725
32400
30628
32052
31040
31706
33764
31644
31340
30848
30387
30463
30790
29378
32250
31236
30080
30287
29285
30028
29222
29722
29567
30087
30058
30702
28967
30264
28861
30424
29047
29777
28667
28632
29747
28700
29666
29352
30454
30454
32312
28795
30042
29442
29588
29164
29631
29187
31591
29284
29993
28167
29562
29002
29022
28179
29464
28870
30035
29917
29568
29928
29683
29057
29634
25652
29376
28006
30104
28788
30620
28156
31104
25767
29058
28300
30145
29913
28771
29990
27890
31196
28362
29741
27527
29512
27649
29607
28338
29938
29760
30833
29058
29670
28966
29094
28689
29634
27820
30088
28381
30296
28162
30105
28105
31328
27185
30586
28343
30424
28666
30169
28618
30144
28021
30351
27397
29090
28558
29770
29023
29872
28534
30505
27592
30905
28008
30928
28162
30235
26935
27711
27489
29868
27528
29996
28468
29778
28629
28555
28485
30245
29235
30270
29140
30260
28509
30200
27837
29106
27764
30053
27769
30616
28369
30142
29953
29876
28655
29454
28756
29410
29032
28340
29850
29468
28161
29224
28129
29412
28055
29392
28459
29216
29609
30513
28186
30040
27825
29789
28443
29468
29230
28282
29170
29017
29146
29018
30431
32022
29597
29472
29769
29284
29623
29864
29404
31366
29703
29073
28492
28999
29047
28472
29239
28802
29969
29760
30451
28774
30837
28421
30123
29038
27684
29409
29686
29690
29730
29736
29313
30884
27814
29168
29565
29785
29886
29263
29942
29637
29667
29384
28407
28444
29479
29160
29760
28688
29439
29439
29572
29422
30298
28476
30388
28331
29408
28377
30494
30154
29576
29598
29184
29324
29014
29892
28811
30664
29448
30209
29081
29713
29457
28913
29213
30012
28737
28777
29594
29269
30364
29614
30249
31266
28393
30974
29205
30764
29444
30617
29143
30459
28411
30570
28643
30147
28983
30317
29935
29677
29602
30763
30255
30801
29715
31259
29410
30896
27668
30144
28604
31368
28646
32216
29076
31668
28432
30192
29233
30343
29276
30825
29746
29554
30021
29640
28810
29748
29230
30449
29083
30736
29415
30336
30456
31348
29180
30982
28663
30368
28780
29479
30309
29750
29751
29788
29512
30501
30298
31124
30661
30650
30323
30512
29792
30698
29097
31636
29720
30270
28983
30054
29008
30156
29587
30402
31142
31384
30652
30080
30397
29612
29846
29854
29893
30763
29919
30746
29732
30522
29473
31640
29014
31497
30012
31258
29979
30256
30112
30062
29869
30702
29286
29634
30543
29868
31167
30395
30629
31132
29467
31605
30133
31772
30330
31378
29601
29451
29659
31409
30261
31339
31109
31165
31875
30426
31479
32093
32420
32345
32294
31712
32045
31315
32039
31062
31078
31551
30746
31856
31586
32569
32569
34198
30338
32428
31153
32113
31060
31547
30914
33267
31014
31987
30750
32496
31251
32202
31885
32412
32334
33626
33646
33170
33555
33452
32824
33202
29672
32608
31582
33097
31819
33760
31626
33461
29475
31592
31597
32094
31081
32096
31226
31576
31200
30674
29998
30452
30735
30603
30400
31733
30675
31332
30946
32380
29716
31648
28801
30814
28580
28488
30614
29836
29618
30349
29798
30373
29850
28899
30324
30507
30648
30630
29879
30806
29588
30955
29829
30196
29095
30848
29026
30502
29889
31055
32322
31374
30755
30542
30193
29715
30449
29911
31974
31443
30194
31126
30154
30758
29546
31160
29510
31882
30586
31641
29669
30400
29242
29408
28158
29210
27594
27813
27761
27548
28384
28857
29183
30596
27467
31030
29721
31920
31350
34205
33877
37967
37190
41956
41172
45801
45553
50040
51492
56028
57215
61662
62718
64672
64672
64671
64632
64584
64567
64523
64628
64534
64567
63962
58531
57596
50648
49092
46007
44290
39954
37106
33560
29343
30662
25991
26624
24227
26180
24931
27094
26110
28243
28243
27362
30043
29481
30179
30934
31243
30119
31589
27249
31300
29745
32153
30000
32036
29457
32648
27495
30492
29219
30950
29361
30469
29021
31184
29427
30390
28385
29738
29407
29892
29761
29597
29224
30138
29269
31071
28453
31202
29031
30285
27492
26835
29631
29722
29167
30128
29263
29950
29210
27645
29619
30173
30698
30482
30391
30378
31086
30371
30269
29394
29495
30315
29682
30400
30046
30327
33478
30850
31107
30075
30915
29894
31162
29393
33312
31244
31331
30297
30923
30494
30814
30669
31099
30892
31982
31749
31233
31323
30987
31733
31027
30923
31407
30097
32076
30514
31597
30951
32635
34274
30814
31646
31590
31666
31330
32100
31796
34374
31564
31880
30375
31826
31284
31424
30602
31724
31567
32522
32429
32614
32735
32314
31974
31967
28565
32226
31474
32892
31993
32962
31595
34305
29908
32092
32049
33364
32334
33274
32586
33745
32181
33316
31557
32560
32352
33515
32435
33250
32514
33786
33232
34880
32270
35302
32049
34644
31499
31927
34690
33125
34731
32964
34732
32723
35750
35750
32225
35335
33495
35039
33576
34746
33939
34816
33434
35108
33015
33952
34112
34048
34933
34788
34465
35410
33856
35574
33957
35802
34390
35549
33645
33106
33805
35430
34285
34980
34690
34685
34914
33812
34861
35939
36036
36188
35811
36392
35342
36006
35010
35084
34618
36132
34808
36986
35495
36652
36790
36432
36161
36229
36023
36300
36117
35302
37228
36181
35487
36040
35794
36736
35707
36494
36382
36504
37043
37472
35791
37244
34926
36782
35336
36217
35848
35236
35696
35274
35106
35621
36239
37850
35360
35712
35039
34572
33916
35060
33419
36000
33688
34097
32259
33507
32176
32946
32445
33023
32613
33171
32456
32317
32292
31321
31567
31465
29335
31624
30722
31667
30245
31282
29678
32332
28565
30613
30007
31027
29958
30640
30063
30522
29643
30765
28497
29163
29525
29264
29718
29513
29452
30030
29103
30826
28539
30659
28795
29750
27573
26310
28441
28999
28475
29552
28773
28994
28790
27121
28864
29408
29667
29916
29415
30253
29082
29876
29382
28574
28437
29373
28931
30013
29553
30005
30005
30746
28045
30398
29103
30375
29591
29805
28978
30341
28355
29777
28255
29672
28774
29342
29354
28871
29037
29856
30151
29724
30013
29649
29349
29396
27362
28974
28631
30088
28741
31048
28831
30681
27450
29101
29090
29745
29111
29776
29648
29216
29755
29004
28305
29208
29195
29581
28850
30072
29367
30034
29402
30831
28397
30508
27494
30038
27867
29086
29478
29382
29157
29223
28636
29547
29088
29732
29749
30265
29642
30008
28741
30402
28098
30975
28433
29890
27871
29812
27734
29782
28528
30044
29883
31037
28954
29564
28748
28984
28466
29038
29110
30892
28634
30464
28258
30042
28092
30792
27359
30756
28611
30760
28461
29654
28349
29184
28387
30081
27605
28804
28586
29384
29239
30109
28588
31104
27434
30676
28195
30884
28183
30312
27551
29244
27135
29904
27653
29776
28410
29682
28589
28755
28126
29898
28994
29853
29001
30292
28075
29556
26996
28920
27604
29679
27614
30525
28423
30319
27910
28984
28100
29528
28456
29548
29038
28440
29584
28538
29812
27804
29418
28461
29046
28069
29190
29190
28573
30055
29649
29445
30161
29726
29239
29233
25757
29070
28594
29937
29280
30196
28595
30477
26723
28420
29117
29534
29614
29417
29718
29417
29679
28775
28495
28041
29646
28789
29641
29120
29878
29280
30257
30377
29370
30193
29259
29403
28649
27066
30489
28730
29603
28849
29631
29208
29513
27421
30190
29440
30711
29454
29791
29804
30014
29202
29485
28469
28436
29234
28421
29296
29370
29659
32247
29923
29851
28915
29170
28549
29805
28111
31070
30395
29469
29474
29391
29349
28854
29512
29145
30000
29895
30667
29479
30029
29473
29292
29029
30042
28754
28902
29734
29234
30164
29984
30787
32264
28609
30960
29694
30296
29530
30780
29356
31855
28923
30892
28309
30896
29076
30027
29366
30249
29199
30824
30390
30789
30460
31033
29527
30436
26732
30454
28951
31425
29341
31797
28949
31624
27315
30326
29546
31032
29422
31103
30135
30453
29943
30484
29039
30269
30002
30844
29807
31721
30261
31098
30642
32000
29783
32324
30042
32047
29460
30268
31687
31416
32604
30860
32690
30575
33556
33556
29579
32021
31187
32194
31135
31947
31347
31720
30821
32144
30156
30354
31102
31026
31392
30354
30577
31351
30756
32604
30800
33130
31515
32564
30654
29663
31847
32796
31767
33199
32462
32640
32344
30535
31838
32792
32598
32874
32080
32874
31889
31942
31293
31015
30147
31659
29930
31752
30659
31426
32920
31087
30545
30375
29873
30620
30919
29029
32320
30900
30180
29748
29513
29881
28744
29904
30042
29676
30338
30848
29239
30073
29142
30539
29263
30050
29546
29040
30029
28876
30025
29666
31239
32962
29547
30766
29903
29967
29996
30584
29816
32433
29857
30628
28657
29979
29494
29688
29223
29978
29593
31142
30521
29957
30720
30336
30016
30185
26325
30006
29267
30819
29611
30609
28445
30480
25725
28061
27623
28392
27368
28498
28149
28696
27984
28918
28023
29269
30337
31257
32018
33784
34945
37940
39252
42996
42853
47422
46768
51771
51734
54244
59240
61560
62955
64666
64459
64681
64473
64612
64459
64670
64483
64632
64465
60304
57460
54274
50957
47637
44502
42002
37190
35146
30990
29003
28141
25607
27222
24987
26688
25436
26742
25315
26318
25876
28544
27290
28800
29060
29781
30249
29573
29573
29891
31146
30977
31107
31243
31369
29901
30851
29735
29639
28910
30851
28841
31406
29109
30842
29657
30266
29462
30442
29468
30338
29662
29235
30400
29816
28753
30261
29644
30704
29107
30928
29412
30756
30081
31614
28940
31411
28355
31096
28802
30596
29726
30118
29509
30186
29078
30711
30108
33034
30415
31114
29671
30975
29063
31574
28891
32810
29339
31036
28606
31180
28618
31054
29434
31202
30397
32364
30549
31082
30623
31123
30072
31141
28555
31768
29895
32203
29953
31809
29623
33166
28954
31812
30155
31721
30267
31517
30311
31796
30088
31993
29402
30717
30343
31131
31295
31433
30793
32114
30443
32808
30197
32506
30335
32233
29739
29163
29986
31453
30105
31852
30599
31204
30721
30152
30829
31920
32119
32472
31948
32314
31151
32158
30760
31445
30973
32284
31133
32540
31403
32298
33536
32570
32381
31798
32437
31690
33066
30786
33332
31961
32505
31776
32322
32055
32445
33341
32547
33021
33246
34470
32792
34365
33112
33561
33078
31095
32250
32447
34013
33648
34474
33515
34369
31912
32835
33657
33618
33713
34372
34382
33516
34563
33272
33162
33248
33991
33880
34303
34827
33935
34425
34972
35493
34106
35455
33800
35060
33383
33634
35307
34440
34893
34641
34931
35086
35230
34928
34928
35937
35551
35589
35809
35268
36194
34429
36559
35122
35425
34662
36131
34601
36223
35287
36378
37586
37500
36404
36716
35903
35885
35811
35783
36794
37705
35480
37477
36325
36895
35447
37464
35052
37394
35579
36780
35068
36224
35109
35548
34340
35700
33757
34670
34489
34528
34794
34765
33945
35598
31957
34808
32376
34318
32834
33370
31767
32896
30717
32348
30727
31904
30999
31330
31553
29996
30467
31160
31133
31094
30626
31005
30071
30326
28298
29506
28714
30373
28676
31050
28810
30243
28366
28792
28834
29324
28886
29674
29377
28122
29216
28530
27979
28668
28578
29205
28319
29625
28610
29128
29132
29673
28220
29807
27072
29469
27818
28529
28724
27843
29403
28351
29777
28083
30512
25791
28331
28114
29468
28529
29782
28651
29421
28512
29337
27490
28610
28763
29184
28602
28562
28345
29226
28679
30124
28012
30826
27890
29613
27154
26530
29150
29074
28355
29594
28564
29226
28179
27610
28664
29752
29927
29632
29003
29824
29511
30048
29261
29047
27912
29819
28191
29660
28854
29842
32297
30300
29578
29104
28733
28504
29312
28274
31375
30109
29373
29377
28545
29228
28880
29506
28966
30286
29799
30584
29067
30354
29183
29700
29055
30015
28951
28810
29769
29155
29813
29752
30887
32348
32348
28516
30552
29503
30362
29570
30380
29767
31486
29216
30252
28587
29604
28897
29587
28663
29332
29211
30196
30025
29718
30574
29870
29447
29841
26144
29378
28708
30196
28863
30896
29030
31112
26860
28862
28908
29799
29148
29923
29447
29704
29227
29429
28084
28724
29333
29689
29039
29703
28913
29940
29377
30959
28524
30752
28366
29842
27490
27580
29570
29078
28256
29710
28789
29776
28618
28044
29128
29528
29969
29688
28799
30318
28890
30616
28911
29004
29249
28983
29616
29453
29497
28853
30136
28155
30623
27758
31026
28335
30467
27383
27558
27874
29975
27821
29950
28482
29162
28869
28104
27772
30015
29229
30453
28739
30590
28279
29896
27796
29336
27272
30411
27531
31074
28076
30554
29679
30618
28797
29576
28296
29891
29092
28681
30277
29960
28428
29825
28002
30122
28085
29886
28642
30098
29492
31192
28564
30540
28021
30531
28243
30046
29159
28910
29088
29361
29048
29957
30071
32673
29145
30244
29282
29831
28725
30460
28863
32202
29010
29831
28119
29360
28758
29330
28663
29772
29320
30409
29864
29410
29751
29245
29612
29655
26728
29639
29533
30403
29352
29974
29055
30856
27794
29635
29818
29797
30049
29614
30247
30061
30148
29748
29243
29256
30438
29642
30838
29021
30772
29824
29824
31041
31531
30942
32172
31265
31189
29949
27521
31255
30964
31521
31225
32046
30933
31706
29338
31489
31069
32105
31532
31707
31229
31516
31273
31508
29838
30296
31381
30376
31491
30693
30938
33916
31484
31115
30751
31471
31252
32387
30743
34107
32411
32447
31580
32494
31979
31627
32770
31638
32023
32125
32465
32409
32416
32250
31419
32052
29734
30669
30294
32016
30064
32098
29810
31596
29157
30393
29942
30923
29717
30847
29847
29616
29825
29693
28942
29573
28814
29939
28732
30600
28983
30417
29962
31245
28963
31040
27794
30579
28290
29724
29476
29713
28879
29553
28951
30380
29396
31448
29894
30448
29673
30301
29354
30566
28551
31379
28927
29714
28098
29901
28429
29816
29085
29897
30380
30940
29455
29805
29611
29255
29475
29763
29355
30702
29357
30588
29286
29532
28310
30800
27461
29094
27907
28454
27024
27674
27702
27744
26992
28320
26755
28234
29208
29908
31025
32666
33711
36057
36195
40408
40359
45040
45338
48088
49144
52424
54505
59352
59997
63565
64724
64720
64702
64690
64705
64723
64712
64688
64686
62832
59037
56332
53017
50009
48007
45878
41409
38466
33476
30732
29204
26606
26300
25435
25137
24929
24914
24003
26638
26086
26392
27026
27197
27952
27848
29273
29271
29925
29925
30753
31211
29685
30900
28953
30970
29400
30518
30062
29271
30761
29598
31496
29189
31279
26964
29089
29134
30067
29154
30348
29652
29962
29527
29120
28197
29312
29781
29925
29298
30700
29813
30341
29905
31547
28981
31030
28582
30762
28619
28544
30475
30062
29446
29750
29065
30480
29857
29145
30338
30600
31181
30512
30186
31049
30206
31224
30281
29863
29052
30766
29807
31005
29918
30664
33677
32374
31275
30902
30657
30156
30812
30165
32298
31922
31129
31344
30691
31218
30062
31553
30524
32668
31447
32177
30743
31546
31110
31216
30894
31664
30470
31064
31245
31017
32337
31845
32455
33876
30348
32573
30871
32272
31349
32095
31379
32868
30292
32250
30772
32407
31173
31919
31891
31924
31539
32709
32353
32435
32344
32800
31900
32409
29228
32596
31303
33482
31405
33934
31604
33934
30061
32291
31940
33128
31585
33640
31931
32551
32638
32536
31363
32444
31829
33343
31822
34052
32311
33504
32860
34705
31971
33734
30886
34064
31222
32584
32989
33317
32413
33345
32279
33976
32795
34028
33545
34452
33222
34856
32698
34722
32099
35626
33152
34204
33776
33233
34371
33826
34203
33117
34922
34922
33673
36121
33163
36280
33284
35376
32244
31960
33422
34696
33446
35113
33711
34976
33641
33305
34025
35407
35356
35714
34422
36146
35085
35916
34589
34651
33360
35744
33362
35840
34531
35918
37717
36208
35073
35074
34646
35140
35031
34541
37626
36044
35188
35252
34476
35680
34384
35191
35011
35288
35485
35658
34360
35011
34346
35329
34307
34350
34199
32842
34914
32832
34275
33001
34656
35812
32462
32814
33259
32027
32430
32240
32643
33957
32218
31846
31041
31353
31775
30696
30628
30793
31143
31346
32012
30208
31873
30326
30428
29444
26822
29216
29337
29865
29488
29847
28713
30534
26203
28395
28951
29442
29219
29464
29215
29224
28608
28924
27657
27881
28385
28649
28667
28836
28854
28932
29025
30101
27934
29859
27604
28704
26846
26288
28985
28498
28182
28849
28367
28750
27844
27016
28260
29173
29164
29258
28355
29667
28933
30464
28455
28615
27319
28912
27721
29054
28394
29794
31911
30022
29185
29699
28702
28984
28807
28867
30592
30969
29853
28035
29860
28399
29716
28977
28225
28585
28585
30168
29838
29817
29166
30284
28425
29692
28163
29110
28081
30402
27959
30768
28468
29983
29670
29777
29105
29016
29054
29378
29271
28251
30111
29280
28770
29181
28560
29258
28572
29592
29162
29278
29713
30420
28695
30024
28112
29592
28133
29715
29254
28780
29279
28690
29216
29250
29914
31904
29299
29816
29525
29740
28793
29835
28452
31692
29267
29418
28656
29230
28103
29048
28927
29106
29266
30268
29413
29444
29799
29044
28981
28954
27001
29620
28652
30004
28813
30116
28343
31327
27151
29520
29001
30018
29239
30146
29431
30006
28911
29891
28187
29188
29249
29182
29965
29140
29573
29401
29150
30674
29035
30834
29205
30274
27689
26600
28592
29408
28555
29756
29093
29108
28807
27137
28879
29654
29868
29966
29422
30383
29295
29587
29117
29257
28349
29940
28437
30265
28626
30126
31538
29968
29142
29445
29434
29636
29598
28085
30899
29445
29229
29823
29219
29626
28770
29536
29137
29582
29591
30680
29278
29984
28646
30656
28962
30064
29064
28854
30568
29127
31062
29159
30872
27602
27602
29023
29449
29902
29399
30363
29727
29281
29914
28913
28576
29405
29572
29855
29442
30806
29322
29911
30260
31311
28956
30977
28682
30723
28782
29724
30773
30108
29759
30190
29955
31042
30591
30961
31317
31793
31735
32175
31231
32109
30385
32684
31090
31331
29937
31972
30427
31750
31129
32026
32806
32796
31670
31815
31379
31205
31193
31132
31904
32511
30692
32159
30622
31904
30563
33092
30325
33512
31482
33396
31287
33339
31699
32800
31765
33396
30928
32064
31909
32368
32365
32922
31691
33508
29569
33376
30613
33270
30740
32220
29628
31269
28698
31298
28378
30408
28806
30078
29488
29676
28801
30641
30003
30200
28554
30322
28349
29580
26475
29204
27313
30048
27670
30974
28102
30484
27650
29418
28623
29659
28544
30168
28991
28638
29132
28822
28027
29162
28144
29485
28077
29947
28111
29253
29063
30788
28007
30175
27280
29854
28052
29053
29210
29088
28958
29001
28123
29793
29339
30449
29535
29759
29114
29546
28690
29604
27758
30537
28570
28716
27849
27905
27737
27826
27336
27210
26678
26678
27411
28139
26516
28227
26885
27748
26791
25898
30106
30128
31675
32970
34699
36892
38689
38834
42804
45003
48300
49460
52669
55256
58607
60508
62272
63796
64519
64593
64522
64548
64475
64588
64487
64536
64567
58744
56943
52280
51571
47298
48478
42411
39100
33689
30763
27264
25549
25455
24834
25017
24843
25433
24405
25446
25407
26276
25893
27077
26988
26736
28763
28124
29534
29610
30966
32170
28764
30667
29745
29564
29519
30384
29931
32217
29483
30274
28119
30356
28993
29496
28433
30178
29147
30945
30068
30133
30274
30265
28819
29829
25563
30251
28574
30884
29323
31586
28700
31868
26695
29840
28897
30811
29261
31022
29393
31265
30035
30814
29115
30465
29983
30709
29871
30989
29661
30850
30039
32305
29297
31658
29021
30662
28314
28122
30416
30500
30338
30680
30111
30609
29835
28892
30146
30836
30678
30632
29967
31255
30438
31161
30213
30205
29156
31207
29726
30972
30343
31388
33086
31891
31072
30956
30314
30433
30839
30124
33101
32403
30987
30844
31334
31293
31348
31541
29620
31253
31253
31918
31914
32157
32102
32141
31047
32096
30675
31046
30750
32440
30996
32960
31469
31767
33118
32230
31815
31941
32031
31982
32446
30594
33649
32177
31834
32124
31555
32754
31996
32764
32204
32660
32962
33930
32172
33041
31371
33258
32016
32866
32544
31551
33107
32260
32631
32486
33763
35937
33374
33517
33300
33332
33074
34115
33029
35760
33466
33985
32307
33614
32255
33754
33529
34033
34114
34957
34492
33960
34075
34344
34143
34168
31542
34393
34143
35469
34210
35175
33828
36331
32466
35071
34575
35499
35023
35664
35198
35872
34895
36010
34204
35034
35564
35606
35714
35129
35555
36136
35318
37280
34876
37216
35284
36477
33879
32992
35010
36006
34940
36161
35455
35634
35450
34041
35344
36505
36640
36584
36286
36890
35870
36157
35259
35201
34387
35979
34236
36705
34854
35613
37161
35550
34703
34650
34580
34277
35083
32941
35728
34509
33365
33681
32796
33281
32270
32878
32035
32961
32510
33814
31447
32680
30705
32907
30849
32120
31031
30588
30900
30368
32306
29987
31731
27871
27871
29472
29267
30300
28710
30240
29462
29692
29324
29220
27887
29156
28400
29780
28418
30309
28422
29493
28517
30236
27490
29734
26852
29772
26791
28161
28587
28626
27625
28892
27466
29000
27659
29012
28526
29472
28412
29146
27395
29437
27138
29933
27479
28798
26253
29410
26667
29234
27505
29226
29220
30152
27935
28693
28027
28693
27874
28134
28773
30041
28071
29252
27707
29065
27315
30100
27787
30284
28461
29780
27940
28784
27962
28448
27755
28964
26650
27745
27969
27942
28607
28775
28487
29912
26760
29822
27713
29898
28047
29024
27571
28715
27511
29394
27511
28953
27839
28568
28750
27824
28305
29214
29742
28969
29207
29396
29378
29166
27353
28245
28024
29198
28003
29880
28755
29204
27693
27552
28324
28125
29022
28679
29397
27872
29746
27677
28523
28538
29123
28252
29022
29437
29054
28288
29822
29913
28525
28977
28254
28960
28351
28147
30108
27960
29353
28592
29038
28739
29662
29447
30250
28458
28999
29048
28546
29061
27950
29816
28820
28506
27543
28885
28042
28965
28160
28911
28948
28948
28933
30448
28247
29936
28118
29311
27050
26084
28922
28709
28108
29671
28420
29066
28601
26547
28674
29240
29758
29589
28802
30408
29470
29932
28763
28879
27743
29696
27762
29858
28373
29362
31812
29649
29296
29424
28671
29235
29330
28374
30743
30437
29047
29591
28430
29662
27828
29369
28549
30420
29464
30296
28740
30204
28621
30306
28916
30009
28510
29006
29103
28922
29314
28906
29827
32417
28650
30145
28984
29502
28805
29858
29300
31996
29111
29980
28060
29714
28574
29381
28038
29184
28727
30255
30005
29544
30157
29669
29151
29475
25797
29758
29186
31004
29789
31233
29575
32076
27600
29949
30174
31713
30515
31321
30924
31629
30662
31257
30295
30915
31183
31016
30739
30802
30463
31181
30713
32326
30456
32321
29972
31605
29007
28684
31356
30900
30743
31790
30344
31644
31076
30160
31467
32403
32699
32814
32055
33242
32568
32796
31983
31533
30521
32697
30557
31596
30629
31626
33734
31993
31300
31156
30963
30350
30907
29743
32273
30992
30017
30032
29713
29740
29137
30202
29372
30924
30924
30538
30383
29745
29493
29848
28621
29494
28554
28555
27624
29410
27603
30487
28578
29714
30017
29028
29025
29548
29079
29346
29351
28100
30028
29193
28801
28664
28672
29362
28191
29447
29123
29460
30111
30646
28789
30499
28162
29783
28391
29714
29567
28144
29233
29263
29386
29107
29866
32263
30131
29858
29632
29841
28694
30395
28885
31181
28678
28541
26868
28054
26458
27233
26545
27294
27632
28320
27726
27538
28086
28044
28601
29772
28695
32755
33055
36293
36791
39886
40061
45657
43763
48761
49815
54333
55048
59338
60291
63466
64016
64588
64555
64610
64546
64596
64538
64554
64487
62392
58605
58288
53056
52094
48072
46385
40588
35685
32868
30338
26445
26707
24574
24623
23861
22447
23108
25284
25277
26653
25645
27530
26050
28009
26152
28723
26765
30091
27555
31244
28422
30653
30468
30729
29043
29986
29041
29911
28831
28896
29751
29987
28100
29462
28090
30008
27748
29467
27568
30165
28635
30463
27380
29741
27138
29823
27391
29842
28494
28972
28861
29290
28673
29896
29637
32863
32863
29386
28333
30030
28359
30444
29036
30038
29035
29285
27660
29466
28948
30091
28054
31036
28928
30099
29407
31110
28383
30856
27824
30344
28007
28620
30059
29204
28838
29915
29272
29966
29440
29968
30526
30165
30327
30495
29668
30926
29712
31219
30132
29628
29168
30602
29451
29986
30190
30143
32476
30907
31213
30192
30919
29724
31258
29449
32471
31282
31727
30798
31468
30773
31227
31477
31151
32140
32025
31264
31543
30834
31933
30326
31404
31137
31010
29900
31794
30594
32784
30880
32307
32616
30856
32154
31688
31932
31258
31718
31425
31468
30456
31857
30987
31289
31211
31522
31898
31446
32060
32345
32656
32208
32854
32610
32385
32228
30617
31565
31317
32814
31971
34120
32314
33770
31602
32210
32635
33310
32451
33328
32971
32720
33571
32324
32326
33279
33029
34000
32899
34916
32995
34440
34062
35608
33181
35703
32551
35042
32867
34132
34267
34694
34017
34904
33765
35331
34482
36142
35102
35873
34733
36122
34454
36242
33511
36784
34473
35944
34017
36317
34035
35866
35201
36460
35909
35909
35483
37280
34549
37250
34390
36233
33889
32962
35418
35701
34951
35570
34766
36155
35241
33939
35682
35657
35879
36089
35340
36056
35850
36309
35456
34597
33697
35650
34155
35341
34183
35232
37159
35040
34455
34235
33744
33521
34035
32268
35457
34172
32789
33072
32222
32563
31490
32374
31683
32410
32191
32635
30663
31648
30941
31649
30648
32165
30826
30016
30951
30106
30873
30163
31245
32708
29206
30693
29781
29750
29479
29772
29757
31411
29158
29838
28289
29903
28491
29149
28126
28912
28796
29681
29964
29107
29805
29657
28485
29217
25685
28830
27805
29602
28497
30198
27631
29894
25991
27904
28167
29300
28039
29382
28674
29332
28897
28497
27851
28827
28727
28850
28930
29621
28816
28988
29093
30476
28157
29916
27826
29590
27201
27023
29346
28714
28593
29416
28739
28706
28163
27791
28810
29027
29422
29469
29214
29980
29082
29754
28453
28970
27789
29478
28035
29342
28600
29984
31802
30348
29659
29428
29036
28935
29100
28839
31404
30762
29173
30029
29271
29715
28671
29996
27788
28688
28688
29956
29679
30149
29813
30567
29277
30136
28843
28923
28359
30196
28764
30784
28966
30374
30776
29986
29543
29944
29451
29674
29796
28730
31103
29901
29113
29964
29156
30014
29145
30126
29429
30142
30116
30890
29183
30340
28415
30636
28638
30500
29518
29144
29342
29481
29443
29836
30324
32928
29598
30496
29243
30379
29045
30734
28631
32038
29295
30056
27929
30258
28167
29706
28519
29937
28669
30764
29616
30077
29954
30139
29073
30278
26526
30360
28659
30799
28597
30588
27859
31746
26671
30014
28379
30434
28719
30192
29089
30561
28663
30543
27535
29544
28765
29653
28841
29562
29135
30296
28759
31208
28063
31137
28224
30342
27297
26914
28258
29811
28364
30512
28313
29396
28420
27755
28309
29892
29602
30207
29006
30459
28927
30081
28561
29418
27770
30106
28093
30290
28531
29984
31573
30406
28927
29617
29016
29306
29658
28516
30940
30529
28895
29444
29053
29596
28385
29357
28475
29670
29554
30256
28566
29907
28404
30245
28800
29616
28734
28606
29452
28691
30018
29227
31145
33166
33166
29500
29776
29992
29928
29962
30167
29660
30904
29752
29810
30324
31318
30863
31255
31516
31476
30926
32826
32341
31500
32239
31072
31797
31327
31286
32658
30909
31804
31189
31703
30889
32190
32328
32988
31629
31894
31516
31463
31391
30455
32542
31405
31451
30545
31836
30894
31686
31735
31978
33505
33412
32939
32284
32941
31544
32166
32301
32476
33060
32465
32512
31830
32055
31918
33297
30858
32992
31739
32397
31527
31584
31132
30957
30271
30983
29363
29980
30343
30470
30980
31216
30714
31832
28718
31701
29503
31032
29170
30837
28556
29132
28476
30593
28806
30138
29334
29586
30269
29460
29017
31031
30506
30796
30180
31295
29639
30618
28480
30069
28699
30758
29433
31732
29276
30872
29862
30174
29812
30339
29889
30378
29927
28993
30516
29648
29141
30119
29559
30340
29290
30500
29391
30010
30603
31262
29252
30553
28235
29914
28193
29011
28661
27929
28021
27448
27087
28156
28740
30397
28644
29028
28975
29987
29914
32236
31658
35900
34908
37800
38216
42193
42742
46048
47391
51125
53852
56247
60312
59971
64570
64518
64544
64533
64529
64539
64569
64517
64541
64583
64549
62815
57221
55916
55916
52594
50685
47033
44455
41252
36610
33323
29690
26883
24936
26135
24421
25518
25057
26480
28935
27986
27376
27877
27789
28224
29327
29293
32213
31507
30731
31110
30487
30914
30042
31284
30294
32053
30954
31942
30349
30950
30508
30275
30051
30802
29588
29782
30602
30121
31114
30275
31383
32580
29261
31503
30536
30828
30379
31390
30422
32016
30050
31547
29670
30990
29928
30696
30311
30382
30398
31479
31824
31214
31405
31541
30584
30974
28246
30660
29805
31862
30524
32485
30501
32536
28558
30837
30670
31844
30573
31659
31216
31188
31229
30920
30107
31140
30925
31671
30981
32460
31246
31768
31903
32698
31135
32820
30577
32158
30173
30780
32187
31112
31538
31394
31619
32442
31603
31984
32607
32358
32222
32512
31802
32931
31570
33370
32334
32273
30678
32177
31216
32497
31703
32862
33791
33484
32329
32552
31736
32071
32452
32172
33196
34014
32421
33354
32323
33213
31884
34021
30764
31872
33352
33014
33617
32642
33797
32654
33949
32333
32880
31350
33945
31269
34627
32381
34113
35247
34408
32527
33912
32529
33561
33200
32698
34836
34846
32683
34348
32744
34401
32904
34387
32715
34848
33705
35886
32641
35138
32743
35546
32916
35384
33370
34365
34101
34672
34410
35291
35292
38505
33756
33756
36169
34667
35737
34301
36044
34807
38552
34597
36417
33621
36216
34150
35683
33966
35978
34557
36604
36194
36424
36303
36836
35512
36502
32301
36488
34876
37020
35279
37901
34963
38159
33655
36243
35739
36888
36043
37223
36451
37312
36322
36867
35233
36155
36732
36439
36517
36848
36375
36796
36835
37889
35834
37416
35541
36344
34462
33384
36599
35427
35997
35563
35738
35028
34864
32866
35081
34062
35995
34264
34756
34162
34985
34013
34356
32416
32701
32761
32774
32337
32743
32667
35786
32574
33144
31329
32057
30757
32102
30062
33767
31770
31276
30622
30947
29945
30375
30092
29961
30440
30614
30784
29643
29982
29772
29384
29221
29877
29415
28300
29601
28993
30100
29269
29669
30441
29432
29087
28743
29098
29188
29428
28012
30077
29216
28491
29041
28554
28849
28685
29408
28485
29172
29685
30210
28471
29996
27815
29880
28176
29882
29057
29046
29260
29162
29165
29703
30019
32872
29707
30464
29639
30462
28973
30894
28756
32829
29372
30578
28078
30326
28596
30366
29025
30672
29591
31554
30243
30448
30000
30191
29499
30244
27082
30737
29492
30308
29277
30797
28604
31863
27687
30492
29361
30634
29394
30547
29745
30648
29283
30641
28467
29488
29812
30085
30391
29696
29745
30392
29722
29722
31856
29103
31435
29389
30733
28263
27590
29305
30667
29367
30611
29691
29822
29715
28015
29668
30351
30725
30557
29952
30660
29723
30365
29994
29607
28564
30524
28999
30692
29340
30503
32375
30796
30194
30013
29653
29656
30387
28974
31674
30378
29524
29880
29604
30070
29342
30101
29653
30380
30525
30884
29441
30402
29267
31176
29344
30494
29859
29136
30291
29129
30095
30104
31220
33566
29844
30954
30123
30314
29625
30527
29949
32848
29897
30805
28839
29996
28984
30444
30831
29694
30074
30372
31244
29226
30956
28701
30471
28792
29348
30038
29821
29748
29904
29311
30240
30275
30820
30743
30479
30482
30654
29783
30838
28987
31401
29655
30108
28579
30350
28944
29657
29303
30572
31410
31304
30651
30154
30056
29703
29971
29811
30019
31177
30259
31033
29704
30494
29175
31368
29257
31299
30287
31172
30129
30728
30101
30402
29810
30162
29424
29965
30269
29840
30841
30434
30656
31344
28981
31548
29895
31377
29777
30876
29058
29386
28934
30967
29309
30432
29788
30048
30637
29614
29613
30782
30458
30948
30723
31232
29932
31006
28986
30149
29084
31052
29234
31776
29469
31534
29839
30376
30063
30782
29981
30919
29998
29917
30876
30492
29315
30779
29838
31038
29516
31264
29550
31057
30715
30715
31966
29210
31555
28685
31076
28884
30693
30055
30028
29861
30706
29490
31171
30661
32511
29999
31304
29714
31449
29218
31836
28894
32781
29787
31390
28587
31749
29093
31385
29990
31884
31216
33512
31487
32088
31091
31595
31106
32409
29915
32748
31175
33500
31319
32692
31029
34336
31233
30972
32762
32336
32528
31003
33124
31671
32759
31353
31522
29855
32176
30029
32190
30693
32921
34033
33016
32044
32383
31914
32117
32739
32208
34586
34018
32815
33023
31831
32618
31591
33328
31855
33572
32493
33403
31792
32928
31927
31522
31377
32002
31075
30787
31163
30108
31496
30462
31232
32189
29528
31075
30075
30606
30591
30333
30547
31132
29735
30123
28916
29440
29342
28984
29838
28778
29997
29676
30996
29644
30871
29861
30131
29470
27614
29202
29255
29742
30378
30510
29770
30377
28008
28988
29681
29856
29871
29946
30067
29456
30309
29138
28920
29368
29616
30093
29299
29696
29555
29956
29858
30860
29193
30818
28526
30005
28235
28462
30695
29046
29092
29189
28581
28710
27980
27356
28070
27715
28175
27878
28321
29166
27943
29724
28742
29869
29203
32300
32045
35216
35322
38729
41874
43704
44198
46887
48581
51696
53863
56920
60099
63422
64245
64714
64598
64655
64639
64659
64621
64699
64643
64643
64656
64647
62601
58627
54446
50444
48420
45145
42702
39910
35514
32386
28966
27067
28384
26976
25627
26641
26165
27742
28001
27639
30813
30922
30315
31337
30563
30979
29984
31147
30508
31240
31573
32033
30195
31252
29629
31357
29734
30716
29821
29274
29942
29630
30428
30160
31193
33266
29894
30950
30022
30328
29664
30621
29770
32461
29645
30826
28721
30091
29087
29908
28879
29893
29891
31191
30705
30335
30512
30443
30092
30509
26931
30200
29613
30953
30260
31121
29318
32040
27560
30086
29879
31025
30423
30892
30701
31335
30647
31027
29460
30298
30434
30404
30563
30420
30381
30836
30625
32255
30012
32027
30007
31370
29206
28112
30794
30921
30397
31071
30452
31024
30319
28938
30532
31185
31888
31713
30851
31979
31448
31804
31088
30994
29795
31910
30184
31837
30807
32009
34030
32413
31667
31465
31279
31380
31703
30727
33792
32734
31715
32017
31563
32156
31170
32130
31535
32842
32459
33318
31971
32965
31842
33052
32199
32881
32513
31954
33114
32219
33005
32780
34005
35864
32028
34022
32927
33346
32955
33714
33259
35748
33174
33999
32087
33971
32665
33444
32536
33464
33009
34108
34891
32586
34741
32296
34148
32475
33785
34375
33471
33639
33718
33771
34142
34346
35923
35079
35058
35058
34474
34973
34372
35440
33753
36536
34348
34840
33597
35146
33839
35010
34410
35368
35916
36018
35443
35556
35465
35057
35169
35192
34731
36339
35519
36518
35405
36420
35075
37288
34411
37067
35656
36872
35933
36724
35771
36596
35487
36845
34576
35888
36074
36056
36963
36956
36343
37412
35066
37912
35600
37691
35528
37143
34670
34616
34874
37007
34927
36767
35277
36208
35509
34598
34778
36232
35605
36314
34878
35864
33978
35416
33162
34131
32191
34948
32130
35296
32289
34290
32764
33476
32020
33110
31513
32794
31371
31224
31990
31968
30291
31730
29997
31444
29716
31607
29572
30884
30581
31986
28756
31236
28362
30718
28430
30264
29198
29228
28967
29334
29277
29805
29194
31945
28974
29758
28331
29921
28133
29951
27457
31274
27879
29069
27152
29378
27275
28678
27651
29416
28640
29782
28812
28947
28440
28186
28160
28712
26589
28984
28035
29447
27824
29228
27621
30204
26784
29240
28800
29156
28639
28626
28967
28430
30023
29153
28144
27513
28940
28119
28602
28557
28538
31446
29325
29619
27977
28987
27208
29408
27531
31347
29468
29532
28845
29234
28686
29082
29043
29126
29680
29899
29689
29310
29019
29718
28710
29042
29051
28812
27768
29856
28327
30270
28696
30510
30848
28266
29557
29557
29271
29306
29221
29284
29175
29893
28691
29628
28147
29028
28673
28969
29063
28476
28792
29254
29958
29250
30117
29567
29111
29100
26577
28825
27974
29801
28602
30294
28406
30652
27199
28259
28718
29708
28632
30105
29200
29305
29026
28794
27987
29318
28691
29757
28396
30544
28812
29746
29122
30767
28076
31013
27861
30139
27405
28907
29612
29485
28803
29772
28774
29986
28971
29736
29491
30323
29371
30153
28999
30483
28531
30841
28951
29390
27619
29904
27985
29475
28582
29738
30704
30508
29469
29500
29173
28812
28983
28356
30286
30434
29200
29768
29011
29589
28559
30156
28524
30409
29237
30265
28935
29850
28899
28915
28740
29854
28319
28666
29190
29042
29981
29507
30061
31066
27996
30568
29160
28944
29195
29523
28154
31158
29928
29187
29580
29023
29549
29045
29259
28810
29676
29803
30572
28845
30264
28616
30502
29148
30186
29239
28749
29406
29004
29745
29701
30821
33330
29454
30308
29485
29991
29437
30431
29667
32165
29254
30629
28412
29942
28869
29712
28559
29648
29203
30617
30178
29784
30078
29684
29485
29793
26157
29788
29182
30282
29257
30447
28885
31516
27215
29316
29494
30248
29594
30031
29883
29840
29638
30168
28728
29310
29716
29620
29763
29226
29493
30193
29868
31255
31255
29034
30844
28920
30257
28075
26850
29578
29612
29097
30040
29175
29545
29159
27609
29239
30109
30400
30235
29696
30529
30102
30599
29719
29445
28385
30595
28870
30418
29442
30367
32720
30299
29893
29761
29435
29547
30107
28674
31893
31277
30118
29919
29372
29969
29156
29901
29423
30275
30456
31088
29269
30443
29245
30333
29405
30601
29792
29232
30347
29701
30244
30176
31266
33193
29349
31210
30125
30942
30013
31191
30312
33502
30295
31816
29435
31141
30212
30672
29454
31136
30482
32286
31890
31968
32624
30046
32334
30252
31786
31933
31680
31469
32068
31302
32479
31977
33922
32027
33014
32091
32644
31166
32804
30214
33824
30831
32034
29981
31957
30016
31584
30558
32391
32166
33401
32312
33017
31995
32127
31934
33073
31748
34194
32582
33987
31959
33574
31318
34654
30766
33944
31615
33426
31101
32735
31246
32302
30867
32602
29883
31304
30748
31114
30615
31507
30093
31856
28686
32015
29223
31704
29113
31307
28411
29155
27842
30287
28459
29886
28513
29699
29379
28232
28852
30394
30030
30467
29817
30439
29025
30248
28163
29240
28123
30598
28301
30970
28327
30506
29310
29998
29026
29843
28829
29808
29190
28443
30069
29589
28661
29653
28594
30054
28491
29992
28879
29940
29716
30647
30647
28682
30429
27595
29557
28412
29612
29583
28600
29272
28673
28181
28036
28712
29935
27797
27378
27436
27828
27599
28239
27331
29913
28640
29468
29620
31144
31677
33656
35445
37979
40579
42877
44701
45976
48735
50707
54079
56259
57834
62220
64425
64541
64549
64558
64566
64560
64526
64443
64476
64691
64700
60896
56888
53675
49332
47070
43152
40890
37292
33279
29649
27463
25930
27642
25594
25855
25484
26025
26169
27260
26717
30487
30819
30511
30313
30303
30325
29786
30806
29966
31530
30942
31160
30151
30619
30317
29893
29735
30392
29475
29019
30198
29252
30358
29951
30779
32328
28643
30746
29523
30748
29889
30580
29609
31840
29239
31024
28651
30746
29003
30256
29192
30058
29551
30964
30661
30752
30498
30996
29680
30857
27079
30641
29064
31588
29751
32155
29438
32504
27602
30286
29193
31404
29717
31460
30302
31114
29912
30005
29271
30760
30072
30889
29846
32049
30353
31438
30627
32070
30023
31714
29398
31365
29047
29338
31365
30392
30253
31014
30460
31184
30571
30085
31120
31342
31326
31166
31150
31853
31131
32206
30712
30892
29642
31568
30154
31339
30733
31644
33063
32576
31687
31283
31411
30692
31205
31200
33187
32598
31957
32122
31326
31660
31151
32362
31147
32712
32039
32904
32904
31561
32356
31786
31537
31647
32047
31327
31321
32309
31879
33008
32608
33187
34356
31441
33568
32022
32208
32285
32844
31488
34127
32828
32263
32666
32259
32904
32111
32948
32520
32969
33467
34265
32516
34067
32185
34112
32657
33946
33075
33244
33529
33129
33505
33880
34785
37233
34094
34837
33974
34370
33628
35332
33797
36818
34081
34760
33221
34637
33614
34748
33823
34987
34489
35936
35398
34985
35313
35053
35358
35618
32641
35426
35286
36335
34827
36205
34722
37563
33560
35865
35503
36387
35621
36385
35876
36924
35566
36857
35287
35753
35954
36497
36726
36092
36589
37173
35771
37992
35919
37947
35998
37188
34888
34028
35930
36972
35872
36926
35868
36291
35636
34130
35311
35952
36195
35866
35651
36096
35209
35468
34358
33892
33356
34807
33319
34732
33322
34040
35858
33834
33096
33072
32771
32306
32731
31168
33937
32432
31568
31855
30952
31571
30458
31285
30529
31201
31011
31680
29962
30692
29291
30931
29577
30724
29624
29364
29436
29093
29267
29826
30242
32996
28523
30156
28520
29620
28624
30180
28501
31870
28582
29944
27614
29456
27503
29260
27655
29325
28270
30041
28768
28768
29249
30154
26831
29404
26620
28707
28501
28796
27497
29185
27801
29494
27932
29192
28650
29531
28277
29506
27777
29720
26958
30525
27248
28961
26742
29262
27042
29257
27042
29607
29262
30610
28342
29172
28005
28718
27789
29042
28722
30276
28163
30158
28073
29875
27578
30429
27392
30793
28032
30315
27985
29773
28172
29260
27866
29417
27548
29064
28313
29090
29098
29611
29042
30756
27419
30448
28137
30079
28641
29737
27871
29042
27777
29608
27916
29564
28356
28949
28781
28414
28821
29545
29440
29656
29146
29619
28609
29191
27041
28662
27629
29769
28403
30234
28570
29923
27989
28312
28762
28861
28947
29096
29515
28220
30009
28036
28567
28418
29267
28796
28884
29583
29326
28812
30279
29746
28945
29410
28243
29097
28495
28509
30097
28115
29919
28163
29490
28752
30053
30027
30530
29465
30243
29388
29525
29420
28675
30524
29226
28886
28410
29245
28373
28751
29093
29394
30614
29802
29540
28804
29165
28295
29210
28470
29541
29955
29277
29556
28794
29404
28414
30125
28095
30060
29236
29716
29716
29454
28994
29725
29346
29566
29041
28561
27866
29761
28151
29600
28725
29674
32123
29837
29277
29619
28948
28776
29308
28408
31367
30764
29164
29844
28877
29800
28437
29718
28597
30107
29350
30968
28746
30408
28687
30548
28920
30557
28130
29714
29661
29744
29566
30376
30349
33122
28509
31123
29474
30688
29478
30614
29205
32711
29143
30641
28319
29972
28767
29915
28457
29882
29006
30714
29885
29719
29527
29928
29526
29919
26031
29842
28940
30702
28944
31308
28753
31442
26773
29290
28919
30051
29424
30292
29663
30477
29833
30250
28445
29336
29648
29880
29373
29917
29441
30112
29796
31221
29031
31137
28890
30450
27938
27336
30021
29504
29456
30210
29416
29951
29175
27993
29399
30124
30459
30085
30212
30680
30539
30630
29741
29638
28731
30660
28916
30410
29434
30443
32878
30901
30146
29920
29826
29472
30373
29258
32163
31287
30244
29924
29908
30134
29763
30174
29607
30621
30315
30882
29589
30472
29687
30351
29625
30365
29803
29292
30784
29794
30665
30343
31349
33064
29207
31124
31124
30091
30204
30298
30464
29251
31176
29751
29439
30125
29840
30608
29564
31041
29821
30394
30561
31424
29653
31297
29022
30821
29556
30461
30957
30346
30611
30669
30708
31424
31805
33200
31947
32014
31536
32151
31470
32956
31039
33984
31685
32080
30768
32414
30970
32133
31680
32223
32482
33042
32214
31818
32195
30960
31724
31557
30379
32191
31293
31928
30585
31657
30444
33156
29902
32939
31801
33242
31836
32982
32206
33480
32686
33579
31543
33072
33151
33121
33799
33115
33011
33592
31579
33980
31767
33430
31377
33032
30488
30104
30459
32228
30657
32183
30912
31198
30954
30030
30344
31322
31223
31580
31111
31782
30325
31161
29201
30316
28738
31160
28975
31586
29043
31148
30341
30486
29249
30269
29489
30507
29609
29360
30403
30056
28801
30654
29143
30710
28802
30703
29225
30664
30386
31755
28702
31519
28131
31121
28409
30732
29370
29909
29480
30196
29247
30794
30394
33320
29670
31126
29446
31025
29054
31511
28808
32676
29221
30280
27700
29449
27244
28806
27266
28369
27638
29019
27876
27876
28254
27922
28254
29377
26899
28520
29916
31132
30999
33786
33715
38198
38611
40480
43301
46432
47891
51128
52681
57235
58325
62104
63168
64588
64526
64581
64390
64590
64455
64566
64516
64602
64555
60251
58111
53193
50709
46016
47223
42980
39142
34166
30986
27656
25915
25547
24873
26426
26435
27132
26815
27736
28055
27974
29518
30066
30605
29704
31461
29584
31688
30322
32626
32812
30447
31307
31391
30642
31246
30581
30945
31484
30134
30344
29597
29882
29643
29514
29987
29472
29654
30530
31069
29882
30407
30304
29905
29766
26856
29583
28843
30452
29504
31084
29051
31375
27435
29453
29389
30580
29763
30373
30122
30458
30467
29868
28969
30009
30149
30514
29963
31208
30599
30754
30698
32156
29823
31731
29241
31322
28830
29755
31167
30755
30390
31477
30390
31395
30387
29812
30597
32088
31415
31894
31053
31868
30561
32761
30940
31579
29855
32429
29959
32584
30647
32514
33664
33209
31937
32824
31210
31586
31674
31368
33159
33428
31969
32498
31383
32354
31248
32852
31178
33474
32342
33129
33129
31519
32760
31807
32025
32480
31746
31615
31112
32761
31423
32856
31756
32468
34139
32952
32219
32353
32259
32170
32823
31608
34062
33216
32129
32709
32317
33200
32184
32891
32257
32909
33263
33968
32489
33504
32059
33989
32302
33633
32657
32317
33388
32645
33411
33144
34383
36578
33362
34234
33581
33908
33468
34587
33703
36420
33643
34144
32810
34229
33003
33776
33546
34324
34205
35302
35382
34473
34795
34533
34747
35029
31894
34904
34359
35766
34639
35848
34099
36741
32519
35230
35158
35790
35119
35758
35495
36136
35160
36324
34639
35398
35836
35799
36285
35514
35705
36472
35647
37483
35165
37679
35145
37438
34705
33920
35785
36525
35493
37330
36188
36588
36001
34655
35978
36992
37309
37284
36931
37520
36674
37426
36321
36450
35138
37111
35200
37226
35802
36884
38607
36792
36146
35672
35322
35530
35731
33916
36936
35711
34612
34696
34042
34541
33559
33780
33193
33630
33576
34160
32531
33556
31969
33549
31879
32607
31671
31158
31936
31262
31787
31761
32635
34536
30647
31510
31510
30737
31090
30238
31242
30575
33424
29636
28845
30445
29922
30398
29324
30768
29436
30180
29989
31010
28661
31136
28407
30094
27847
28816
29547
28821
28951
29032
28909
29338
29315
29802
29796
29856
29378
29948
28978
30100
28139
30818
28975
29382
27721
29651
27951
29310
28647
29999
30132
30576
29524
29402
28647
28612
28727
29104
29070
30326
28576
30076
28463
29896
27895
31104
27511
30754
28589
30296
28372
29928
28467
29356
27919
29904
27641
29296
28641
29341
29166
29728
29060
30968
27033
30998
28037
30472
28339
30274
27597
29162
27340
30060
27911
29739
27935
29347
28939
28370
28117
30246
29391
29929
29024
30291
28548
30001
26958
29146
27414
30298
28006
30882
27546
30696
28277
29620
28435
29841
28350
29522
28761
28586
29488
28866
27925
29450
28600
29926
28261
29932
28623
29606
29399
30370
28181
30505
27814
29627
27792
29082
29450
28622
28469
29196
28688
29258
29645
30292
30247
29630
29582
29398
29239
29838
28546
30900
29323
28824
28576
28846
28495
28742
29217
29234
30784
30052
30515
30515
28764
30095
28468
29871
28697
26494
30076
28640
29465
29232
29341
28879
29317
27064
29607
29007
30302
29238
29576
29460
30085
29620
29117
28744
28155
29492
28093
29018
28705
29497
31886
30016
29599
28266
29067
28356
29335
28330
31606
29986
29632
29146
28903
28949
28807
29239
29295
29751
30062
30332
28943
29764
29135
29690
29297
29832
29034
28547
29830
28928
30428
29551
30743
32341
28525
30666
29653
30205
29330
30428
29487
32212
29002
30714
28294
30528
29090
30457
28879
30411
28819
31016
30375
30709
29981
31136
29411
30395
26679
30498
28600
30795
29104
31691
28781
31708
26663
29702
28989
30812
28820
31048
29757
30101
30111
29982
28605
29724
29609
30003
29235
30504
29392
30335
29849
30780
28843
31307
28372
30098
27750
28246
30110
29535
29142
29869
28987
29865
28948
28532
29747
30296
30253
29992
29726
30723
29559
30868
29410
29586
28401
30397
28559
29929
29279
30391
32080
30733
29985
29803
29491
29119
29779
29252
31646
31231
29923
30352
29890
30298
29286
30526
29471
31430
30433
31306
31306
29675
30688
29945
29861
29610
30738
29958
29091
30823
29215
31287
29588
30575
31461
30874
29774
30304
30099
30505
30406
29252
31710
30586
29724
30328
29881
30237
29679
30181
29909
30181
30965
31629
29663
31162
29415
31558
29851
31088
30604
30384
31385
30656
30957
31198
31850
34712
31274
32345
31791
32340
31562
32394
31876
34520
32163
32304
30981
32261
31429
31728
31430
32014
31974
32793
32369
31764
32201
31485
31523
31239
28904
31347
30805
31730
30649
31933
30713
33522
29865
32400
32150
33193
32738
33246
33500
33853
32611
33580
31717
32930
33196
33004
33258
32007
32646
32968
32146
33483
31444
33280
31508
32514
29997
28736
30922
31623
30537
31655
30547
30637
30430
28791
30199
30657
31189
31536
30853
31209
30436
30765
29426
29458
28524
30496
28816
30431
29301
30732
32191
30826
29826
30078
29722
29920
29919
29186
31238
30396
29624
30044
29165
30329
28991
30386
29013
30508
30103
31320
28798
31134
29153
31296
28782
30856
29495
29746
29895
29803
29473
30753
30719
33810
29418
31330
31330
29489
30832
28987
31292
29191
32988
28975
30368
29264
27559
29022
26997
29280
26949
28592
27602
29892
26390
29925
26738
30307
27972
30083
31231
32662
32582
36540
36858
41392
41597
44809
46192
50333
51234
55882
56841
61384
61249
64652
64675
64700
64662
64720
64637
64711
64650
64712
64647
63868
59391
55764
51984
48414
46156
43121
40710
37032
32368
29522
26760
26154
24132
26402
24055
27796
26284
28141
27223
28644
28277
29342
29500
30808
29751
29720
30067
29981
31748
31065
31655
31879
29322
31280
30275
30868
30138
30559
29467
30012
29338
30277
29359
29436
30011
29386
31262
28661
30327
29969
31082
29874
30990
29904
30068
29591
28448
29040
29395
30132
29898
30780
30060
30672
29518
28968
30419
29678
30492
30286
30882
29358
31006
29164
29553
29396
30333
30282
30289
30820
30663
30028
31021
31217
29925
31018
29219
30150
29468
29720
31052
29973
30611
30258
30308
30597
30829
30658
31351
30960
30847
31333
30433
31059
29918
32085
30567
30916
29722
31084
30127
31226
30787
31001
32161
32477
30892
30892
31740
31366
30979
31445
31192
31481
33106
31463
33026
32520
30947
32221
30938
30275
30828
32484
32226
32683
31562
33120
31951
33019
31750
32208
30338
33072
30591
33313
31361
33354
34611
33764
32164
32867
32063
32752
32651
31918
34352
33940
32512
33393
32277
33234
32231
33287
32607
33512
33213
33963
32450
33605
32475
34051
32686
33701
32754
32693
33577
33296
33843
33792
34861
36742
32806
34238
33503
34196
33351
34413
33823
36536
33902
34604
32860
34609
33485
34042
33244
34316
34002
35269
35294
34749
35070
34884
34749
34556
30717
35503
34505
35458
34631
35740
34344
36987
32675
34720
35178
35772
35269
35860
35711
35812
35473
35960
34574
35720
35880
35914
35852
35672
35954
35970
36227
37524
35374
37096
35329
36761
34347
33551
36243
36192
35537
36877
35711
36372
35541
34482
35780
36800
36820
36488
36556
37112
36684
37006
36091
35954
34924
36490
35018
36508
35187
35777
38640
36291
35448
35099
34912
34354
34916
33514
36414
35489
34175
33972
33370
33757
32774
33409
32577
33186
33341
33575
33575
31912
32680
31641
32490
31213
31994
31007
30718
31405
30444
30949
30853
31440
30135
30048
30218
30818
29990
30474
30314
29056
30595
29834
29079
29888
29239
30196
28902
30362
29212
29678
29875
30513
28945
30325
27864
29856
28034
29183
29502
28440
28846
29026
29037
29502
29741
30821
29556
29814
29306
29770
28850
30088
28301
30698
28619
29254
28036
29279
27812
29342
28688
29391
29971
30524
29436
29259
29072
28868
28884
28750
28384
30273
29050
30177
28526
30046
28654
30925
27584
30496
29099
30254
28829
29756
28876
29415
28542
29997
27958
28965
28951
29533
29487
29649
29476
30610
27679
30713
28091
30579
28593
29970
27581
28845
27502
30073
28071
29808
28551
29426
28882
27996
28635
30022
29266
30248
29005
30270
28097
29622
27118
28999
27253
30372
27799
30828
27976
30492
28356
29434
28169
29598
28285
29532
28611
28652
29295
29526
27997
29472
28080
29692
27479
29741
28139
29536
29027
30536
27886
30607
26906
29838
27516
29101
28695
28447
28530
28896
28078
29305
29303
31256
28695
29726
29726
28481
29420
28290
30246
27779
31379
28130
29176
26921
29424
27394
28716
27851
29254
29550
28384
30083
28137
30531
27601
29283
26603
26710
29293
28434
28271
29007
28293
28761
27898
26776
28766
28717
29238
28756
29123
29303
29651
29550
29415
28050
27910
29276
28199
28832
28917
28996
32111
29032
30580
28397
29231
27955
29802
27782
31932
29915
30147
29067
29511
28972
29159
29192
29190
29978
29699
30117
29510
29648
29519
29225
29383
29146
28967
28056
29651
28529
29956
29108
30743
31455
28456
30039
29521
29389
29374
29800
29603
31607
29089
29921
28502
29600
29199
29404
28892
29090
29285
30324
30319
29613
30006
29897
29569
29810
26458
29328
28375
30696
29222
30830
28739
31464
26706
29025
29003
30190
29013
30481
29253
30602
29803
29774
28293
29658
29697
29712
28815
30816
29957
30417
29697
31700
29087
31282
28520
30747
27973
28534
30024
30010
29137
30537
29351
30317
29148
29164
29828
30999
30271
30858
29949
31529
30155
31828
30002
30416
29165
31458
29602
31362
30603
31617
33571
32544
31937
31482
31338
30900
31990
31218
33819
32777
31631
31974
30715
31782
30728
31973
29760
30888
31763
31623
31623
31704
31448
31700
30719
31368
30378
30865
30055
32361
30572
32920
31438
32914
33446
33245
33015
33036
33029
32977
33089
31626
33909
32692
32031
32430
31880
32547
31351
32116
31698
31812
32259
33030
30748
32473
29730
31398
29653
30939
30092
29589
30246
29941
30239
30515
31017
33194
30427
30561
29263
30276
29184
30403
28612
31998
29246
29870
28587
30164
28678
29318
28928
29448
29462
31094
30433
29428
29851
29336
29792
29620
27716
29943
29237
30586
28975
30192
28667
31357
27655
30079
29597
30384
29489
29976
29480
30242
29095
30420
28703
29165
29514
29893
30103
29828
29751
30636
29297
31216
29013
30774
29151
29884
27407
26348
27623
28320
27118
27810
27276
27615
27631
25922
27531
28866
29363
30146
30735
31579
31663
34032
34265
36952
37943
42340
42598
46508
47282
51476
54891
57482
58837
61724
63585
64526
64763
64552
64693
64612
64623
64574
64682
64568
64687
59508
56818
52638
50330
47192
42847
40526
35335
32653
28778
27623
25895
24858
25736
25010
27485
25894
28591
25253
27648
27867
30102
29559
31210
30685
30759
30597
30209
29319
30700
30526
30915
29869
31470
29950
30723
29988
31709
28852
31251
28219
30682
27745
28856
29737
29432
29172
30193
28801
29902
28649
29229
29455
30108
29269
29269
30079
28924
31163
28562
31124
28429
29851
27811
30468
28059
30464
28819
30713
30884
31307
29495
30305
29185
29826
29346
29553
30530
31781
29123
30917
29057
30534
28505
31326
28723
31923
29322
31582
29026
31123
29326
30480
29163
30872
29234
30076
30063
30260
30587
30829
30612
32940
28635
31714
29751
31680
30141
31460
29916
32532
29330
31704
29335
31506
29695
31340
30376
30912
30275
31814
31291
31417
31343
31513
30450
31524
28091
30990
29682
32074
30439
32694
30336
32696
28737
30726
30634
31521
30416
31798
31216
31344
31590
30852
30627
31234
31395
31554
31114
32499
31588
31323
32275
32703
31539
32453
30774
31737
30659
30030
32881
31135
32222
31251
32282
31810
32734
31147
33049
32241
33520
32194
33281
32312
32478
33027
32727
31744
32297
32478
32227
32024
32176
33571
32912
33176
34276
32628
33868
32900
33337
31871
30000
32746
33048
32719
33555
33105
33037
33040
31144
33225
33853
34583
34024
34195
34392
33911
34011
33783
33064
32866
34632
33463
34904
33955
35035
36396
35020
34710
34358
34539
34416
35149
33480
36306
35514
34735
34943
34418
35460
34311
35632
34683
35600
35762
36986
34580
36664
34685
37010
34800
36554
35140
35715
35767
35837
35547
36504
36812
39756
35522
37271
35632
35632
36490
34764
36648
35219
38712
34824
36164
33511
35692
33693
34945
33448
34720
33692
34932
33966
33268
33415
32829
32418
32809
29555
32467
31733
32808
31375
32288
30738
33128
28823
30890
30824
31488
30316
30722
30212
30627
29349
30291
28114
28912
28987
29443
29348
28550
28598
29059
28556
30024
27397
29563
27741
28845
26337
25351
26965
28234
27463
28605
27415
27616
27401
25307
27173
27913
28471
27978
27709
28194
27434
28037
27461
27040
26433
28021
26444
28520
26813
28116
29711
28380
27525
27205
27264
26968
27787
26422
29414
27914
26828
27292
26768
27635
26885
27477
27016
27368
27770
28140
27648
28154
28146
27433
27792
25105
27317
26624
28305
27043
28997
27078
29108
25440
27168
27165
27831
27095
27728
27217
27182
27292
27026
26346
27245
27057
27482
26816
28145
26903
27923
27662
28833
26819
28441
26240
27937
26169
26542
27851
26767
27152
27293
26573
27811
27437
27242
27972
27948
27942
27710
27575
27917
26627
28520
26962
27197
26162
27880
26253
27385
26727
27444
29260
28469
27932
27170
27333
26677
27152
26584
28451
28047
27274
27680
26853
27296
26551
28045
26240
28368
27427
28698
26731
27733
26905
26896
26608
27342
26309
26878
27104
26688
27543
27376
28018
28792
25628
28129
26705
26705
27700
26622
27424
26662
27924
25880
27532
25395
27341
26334
26755
26652
26539
26468
27878
27467
27388
26964
27169
26166
27681
23839
26588
25162
27624
26049
28232
25675
27888
23973
26158
25719
27053
25264
27367
26135
26971
26288
26044
24618
26834
25629
27007
25385
27894
25576
27332
25976
28229
24975
27488
24474
27010
23854
25651
25841
26218
25160
26585
24903
26802
25149
25760
26928
24874
27324
25206
26730
25288
27345
25087
26707
23919
25728
25211
26302
25731
25504
24746
26525
25064
27362
24429
27058
24427
26547
23614
23321
24769
26248
24303
26729
25346
25966
24846
24048
25020
26450
26309
27040
25900
27278
25486
27430
25505
26621
24993
27580
25592
28269
26078
27760
28979
28094
26862
27368
26660
27102
27515
25778
28256
27655
26119
26968
26395
26758
25937
26436
25950
26550
27112
27672
25782
26871
25797
27436
26638
27311
27578
26616
28179
26920
28735
27925
29725
31433
29044
28526
28709
27816
28289
27956
28239
29896
28047
27402
26596
27127
27284
26616
27031
26451
26988
26797
27251
25468
26424
25022
25589
24958
22815
25396
25297
26032
25253
25858
23863
25989
22117
24409
24187
24946
24654
24480
24657
24775
24081
24650
23248
23741
24603
24452
24746
23756
24276
24316
24187
25448
23535
23535
25470
23595
24524
22270
21354
23775
23740
23490
24320
23839
23331
24562
21893
23501
24492
24331
24529
24303
25215
24086
25080
24065
24348
23029
25442
23114
25510
23494
24905
26558
25204
25454
23279
24806
22982
23841
21667
23054
21133
23355
21200
23398
21836
22902
22656
24028
23954
26289
26166
27790
28414
31222
31819
35397
34280
38888
39076
44760
45547
50996
51182
56023
55104
59144
61213
64040
64663
64597
64613
64585
64683
61872
58625
55580
52523
49129
45595
43280
39401
36200
33249
29649
24647
23528
19819
20382
17836
18265
19792
19668
19847
21023
20867
22068
21891
23008
24079
25213
24947
24975
24493
25151
23336
25342
24303
24762
23680
24690
23113
24243
23471
24461
25297
24814
24135
23343
23693
22875
23548
23188
24887
24736
23917
24122
23564
23988
22860
24579
22395
24812
23491
24340
23327
23612
23397
23031
23066
23894
22678
22782
23619
22888
24343
23885
24094
25280
22219
24972
23437
24785
23600
24205
22990
24806
22654
24520
23009
24388
23308
23454
23838
23288
23701
24408
24636
24488
24499
24656
23830
24297
21759
23600
22900
24810
23326
25365
22804
25554
22679
23765
23443
24525
23809
24652
24195
24004
24537
23850
23803
24220
24067
24846
24109
25402
24576
25040
25518
25234
24931
24931
25146
24721
24680
25030
21485
25262
24512
25848
24389
26166
24323
27112
22434
25107
24525
25776
25038
25369
25179
26052
25016
26010
24260
25228
25418
25476
25595
25048
25235
25705
25471
26906
24902
27036
24515
26018
23696
22958
25477
25448
25412
26276
25547
25603
25256
23781
25207
26122
26243
26547
26222
26539
26545
26906
26142
25571
24702
26888
24702
26498
25582
26668
29133
27200
26383
26221
26065
26348
26687
25314
28249
27911
26504
27109
26063
27408
26076
27313
26608
27456
26656
28648
26291
28019
26271
28566
26513
28079
26383
27200
27587
27177
27653
27996
28687
31060
26733
28964
27360
28606
27408
28815
27641
30960
27287
29236
27106
29178
26901
28554
27009
29240
27447
29601
28242
29181
28068
29194
27243
29044
24261
29178
27164
29554
27469
29937
26785
30489
24226
28293
26938
28964
26786
28833
26761
28822
26621
27932
25100
27205
25997
27056
25876
26300
24883
26581
24588
27180
23583
26604
23104
25163
21787
21625
23725
23962
22221
24245
22075
23213
21530
20979
24529
22135
23237
21392
22776
21721
21950
20833
22427
20200
20858
21477
20986
21504
21139
21713
22036
19730
21708
20034
21344
20096
21570
19549
19654
19415
20616
19442
20652
20243
20086
20764
19116
20914
20713
21463
20763
20763
21234
20618
20638
20160
19087
19261
19857
20656
19798
20910
20081
20906
20459
19764
20835
19988
20862
20072
21260
19010
21628
19794
20560
19854
20983
20645
20413
19954
21128
20346
21736
21136
20255
21036
20090
20226
19990
20088
21130
18890
20479
19755
20320
20288
21522
21485
20910
20748
21084
20502
20508
21163
19820
22256
20165
20206
19060
20448
19474
19906
20366
20478
21171
21567
21249
20082
20777
19639
20381
20490
19975
20940
20546
21414
20160
21258
19815
22319
18942
21464
20428
21663
20241
21118
20203
21437
20034
21562
19388
20289
20578
20696
21338
20948
20579
22088
19144
22445
19848
22020
19937
21869
19055
19480
19535
21542
19216
21839
20043
21204
20284
19700
20280
21868
20681
21736
21012
22096
20290
21576
19331
20633
19326
21661
19397
22003
19686
21592
23587
18971
21390
20152
21153
20224
21407
20467
22851
20229
21426
19412
21284
20363
20597
19776
20832
20226
21502
21255
20914
21032
21171
20592
20746
17407
20928
19716
21354
20288
22136
19941
22546
17689
19935
20439
21489
20334
20950
20785
21000
20734
20617
19335
20905
20783
20342
20370
21352
20182
21274
20830
22051
19759
21630
19319
21310
18844
18944
20860
20297
20172
20828
20183
20806
20090
19024
20393
21240
20935
20751
20751
20597
21064
20404
21657
20510
20018
19548
21316
20038
21203
20812
21279
23635
22392
22150
21416
21854
21268
22566
21623
24391
23375
22785
23174
22673
23055
22463
23248
21829
23963
22837
23367
21856
22449
21718
21926
21535
22693
22128
21724
22694
22117
22953
22368
23367
25138
21511
23128
22779
24079
23472
24429
23427
25480
23494
24827
23037
24330
23545
23603
23427
23466
23406
24083
24102
23517
23641
23589
22753
22936
19899
22220
21596
22254
20852
22900
20540
22278
18628
20607
20538
21277
20643
21294
20897
20611
20454
20166
18665
20165
19827
20466
20224
19586
20349
20705
21116
20853
20344
20518
20192
20350
20781
17731
20690
19658
20749
19707
21250
19283
22018
17303
20749
19934
21196
20188
20724
20103
20844
19693
21417
19207
20232
20250
20881
20851
20332
20325
20868
20006
22072
19408
21442
19743
21208
18393
17825
19530
20458
19068
20772
19445
19485
18899
17285
18007
18888
18294
18684
18111
19178
17987
18889
17557
19398
17980
21492
19530
22749
21980
25212
27587
29301
29685
32862
33735
37259
38909
41780
46480
49474
49911
53760
54407
58432
58284
61250
60803
61320
60519
61952
57878
55577
50405
48745
43949
42534
39091
35575
32474
27610
24378
21551
19705
20838
16559
16474
15326
16043
16043
14414
16929
15379
20392
16539
18458
15853
19159
17497
19768
18373
20818
19687
21525
20193
20592
20107
20796
19603
20682
16407
20652
19008
21249
19110
21238
18194
21915
16472
20116
18919
19970
18503
20488
19418
20587
19263
20304
17731
19666
19895
20611
19682
19250
18911
19603
19303
21148
18535
21189
18520
20327
17557
16793
19211
19740
18769
20167
19885
18689
20821
19461
21200
19875
20509
19982
20629
20332
20090
20009
20056
19489
19502
21167
19608
21424
20328
21334
21408
19588
21059
20867
21068
20966
20820
20673
20112
20022
20862
20656
20587
21364
20516
22039
19936
21506
21355
22541
21098
22364
21554
21351
21282
19991
20695
20488
21605
20894
22471
21189
22184
20656
20748
21222
21077
20782
21647
21775
20558
22314
21220
21123
21242
21898
21949
21460
22601
21837
22020
22319
23034
21412
22830
20480
22288
20819
21669
22707
21503
22133
22026
21959
22319
22567
23439
22947
22949
22732
23349
22413
23873
21931
25280
22391
23188
21393
23798
21971
23366
22454
23803
24147
24636
23551
23988
23223
23240
23108
24030
23455
24974
23657
25376
23267
25330
23312
26201
22469
25818
24061
25644
23977
25300
24340
24914
23974
25242
23272
24314
24649
24737
25201
24709
24655
25842
23602
25480
23783
26290
26290
24498
25692
23772
24651
24131
25788
24414
25419
24949
25064
25559
24114
25055
26089
26044
26018
25935
26490
25727
26041
24535
25474
24968
26882
25470
26336
26407
27325
29361
25111
26921
25853
26462
26103
27157
26321
28824
25943
26376
24766
26208
24995
25854
24526
25610
25201
26256
25865
25222
25285
25381
24459
24674
20502
24485
23179
24552
23216
24840
22636
24704
19650
22121
21824
22860
22020
22729
22017
22689
21685
22126
20383
20946
21138
20993
20902
20984
20285
20881
20077
22184
19453
21251
18922
20573
18066
17442
19890
19564
19466
19996
19137
19526
18678
17420
19155
19424
20111
19647
19218
19998
19735
19977
19168
19096
17950
19722
17866
19386
18597
19423
21980
20130
19222
19075
18917
18548
19179
18630
21514
20292
19611
19790
19135
19556
18912
19724
18890
20264
19676
20463
18753
20098
19421
19930
19300
20073
19091
18886
19922
19096
20167
19441
20446
22226
18526
20482
19506
20108
19478
20016
19539
21637
19497
20731
18715
20362
19543
19701
19088
19788
19662
20457
20706
19904
20347
19902
19957
19965
16588
20192
19573
20526
19595
21047
19039
21954
16792
19231
19410
20176
19065
19065
20306
19539
20358
19457
20199
18419
19718
19416
20368
19792
19275
20091
20034
20702
19968
19896
19796
19306
19126
20117
17731
20493
18894
20844
19065
20682
18513
21916
17550
20859
19364
20573
18745
20495
18998
20418
18422
20728
17996
19486
19176
20058
20184
19873
19159
20872
18554
21549
18491
21154
18256
21368
17945
18558
18416
20839
18332
20591
18651
19594
18969
18395
18635
20897
19459
20982
19383
20866
18505
20415
18097
19976
18217
20974
17911
21285
18409
20402
19973
20333
18795
20108
18707
20462
19475
18825
20620
19944
18748
20530
19247
20577
18667
20641
19081
20365
19726
21594
18501
21028
18279
20876
18278
20039
19765
19901
19970
19331
19263
20084
20399
22948
19749
20497
19775
20336
18853
21024
19343
22694
20004
20472
19047
20495
19297
19910
20104
20256
21624
22136
21772
21102
22457
20626
21744
21016
19885
21880
21924
22728
22351
22623
21681
23294
20293
21746
22331
21916
22226
21295
22413
22069
22459
22524
21919
21160
22748
21700
23319
21312
22697
22901
22482
23486
22728
23877
23877
23718
23786
22431
20252
22765
23883
23146
23377
23179
22718
23251
22462
23728
23166
23133
22059
22957
21985
21520
21706
22112
21150
20302
21602
20183
21212
21078
21782
22769
19456
21443
20646
21170
20417
20802
19865
21441
19366
20868
18827
20613
19273
20258
19910
20312
19568
21005
20731
20646
20155
21142
20157
20999
17392
20890
19404
21543
19733
22785
19517
22448
17856
20476
19274
21707
19900
21514
20325
20668
19955
20646
19185
20944
19922
21190
19908
21878
20157
21080
19935
22008
19708
21892
19130
21102
18758
19393
20955
20216
20066
20303
19252
19935
19298
18266
18951
18830
18507
18650
18267
19575
18148
20242
19361
20030
19948
22294
20876
23948
24965
27496
31135
31879
33275
35900
37285
39159
42615
45464
50315
52486
53396
56402
57295
59858
60638
62601
61137
61964
60927
59792
55026
52164
48828
44985
42622
40796
37421
32853
30774
25735
23843
20312
19862
19785
15846
17602
16295
16984
16468
17904
17299
19144
17469
19861
17917
20293
19472
21185
21107
21049
21323
22340
22221
21472
21472
22220
22128
21875
21660
18986
21404
20539
22304
20943
22797
21642
22529
25176
21713
21776
21378
21654
21275
22325
21146
24266
21267
21348
20190
21526
20726
21372
20823
21648
21888
22600
22279
21440
21934
21405
21415
21754
18797
21930
21196
23014
21341
22977
20832
23853
19235
21942
22109
22518
21624
23109
21990
23166
22143
23250
21282
22093
22314
22640
23085
22285
22674
22860
22253
23797
21808
23724
21952
23155
20847
19870
22174
22638
22527
23666
22652
23186
22456
20838
22463
23442
23776
23801
23263
24056
23319
24187
22859
22991
22079
24316
22397
24347
22884
24147
25547
24431
23635
23665
23107
23711
23545
23013
25599
24544
23596
24445
23523
24755
23102
24736
23529
24586
24515
25837
23379
25730
23071
25709
23591
25266
23927
23960
24326
24398
24625
25144
25609
28975
24343
26482
24317
25821
24487
26280
24768
28348
24599
26391
23931
26065
24394
26166
24131
26133
25071
27204
25494
25991
24836
25803
25167
26260
21633
26991
24899
26954
25131
27874
24627
28830
23014
26708
24996
27529
25582
25582
27638
25590
27809
25387
28084
25207
26712
26311
27957
28009
26111
28185
28575
28777
27320
27790
26635
27064
27027
27176
28299
29058
27492
28789
27168
28329
26785
28985
26633
29114
27154
29099
27293
28680
27601
27586
28157
28768
27218
27887
28411
28342
29168
28562
29652
29725
27250
29286
28087
29172
27989
28318
27910
28282
27196
28780
27481
27874
27581
27376
28498
27171
27815
27479
28575
26932
27651
26273
27143
26523
25034
25664
25513
26224
25641
26513
25915
26102
24457
24350
25340
24738
25012
24524
25377
23663
25296
22861
23868
23523
24494
23554
23528
23369
23756
22984
23652
23836
22303
23385
21321
22469
21571
21526
23180
21619
22351
21916
22020
22029
22510
22220
23182
22398
22447
22409
22109
22586
21047
23283
21837
21883
20706
21747
20631
22314
21430
21922
23233
22928
22750
22284
22291
21651
22514
21747
22962
23134
22282
23480
22035
23043
21259
23832
21462
24199
22127
23738
22081
23301
21993
22114
21596
23162
21106
22600
22724
23284
23191
23489
23266
24889
21672
24518
21971
24727
24727
22422
24207
22282
23739
21919
24534
22042
24063
23473
21946
23027
22306
23660
22776
24273
22311
23880
21893
24400
22355
23508
22508
22702
23322
22427
23005
23465
23874
26632
22746
23956
23235
23878
22895
23875
23443
25745
23567
23300
21692
23603
23015
23067
22202
23385
23312
24023
23685
23279
23682
23616
23372
23640
19931
23661
23085
24230
22725
24235
22172
25109
20539
22883
23207
23404
23141
23600
23425
24060
22862
23656
22410
22848
23581
23802
23588
23140
23357
23881
23333
25006
22715
24804
22510
23865
21540
20410
22978
23413
22923
23667
22851
23226
22331
20802
22857
23281
23661
23800
23572
24302
23821
23867
23447
23404
22401
24056
22044
24646
23350
23916
26493
24272
23393
23652
22813
23399
24073
22236
25483
24966
23484
24102
23399
23753
23122
23892
23554
24262
24150
24707
23095
24555
22961
24902
23371
24651
23790
23556
24427
23853
24776
24819
25910
28276
24151
25580
24899
25525
24807
26303
25319
27916
26130
26444
24597
26570
25207
26458
25412
26721
26139
27297
27449
26320
26320
26291
26281
25941
25892
22491
26562
25742
27235
26795
26298
27076
27055
27555
27299
27536
27471
27463
27292
28746
26757
29204
27607
27954
26535
28287
26526
28428
27351
28622
29111
28510
27886
27208
27027
26329
26419
26296
26749
27499
26240
26944
25367
25985
24447
26440
23904
26488
24707
25910
24552
25869
24880
25239
24193
25130
23152
23969
24469
23901
25027
24714
24862
25862
22860
25408
23392
25626
23791
24706
23481
24569
22674
25045
23291
24952
23464
24028
23957
23724
23297
25067
24371
24844
23735
25229
23657
24841
21880
24491
22712
25591
23426
26387
23068
25889
22860
24245
23505
24746
23005
25514
23528
24350
24232
24137
22713
25276
23440
25226
23175
25451
22846
24051
22931
24799
21240
23236
20032
23204
19960
22344
22619
22869
22483
24354
23583
26428
25636
28232
29159
32048
32938
36420
36457
40580
40068
45952
46086
50020
50513
55828
55341
58717
60002
63132
64518
64771
64447
64672
64583
60564
57930
54392
52927
50248
46700
44757
41551
38010
33364
30175
25175
24863
22655
21854
20440
20569
20529
19807
20168
20787
20490
20951
22304
21079
22796
22547
23016
26773
24537
25261
23792
25105
25105
23992
25817
23623
27814
25736
26254
24888
25436
24952
25314
24729
25653
24740
26120
25769
25195
25384
24954
25868
25252
25333
25420
24002
25954
24192
25821
25134
26915
28189
24673
25805
25278
25273
25095
24982
25165
27601
25303
25881
24674
25401
25053
25128
24651
26250
26277
26906
26553
26379
26664
25978
26215
26353
23065
26148
25753
26881
25535
26860
25070
27705
23772
26106
26087
27335
26243
27374
26534
27943
26756
27568
25614
26967
26597
27422
26901
26542
26439
27663
26941
29066
25805
29023
26274
28098
25124
25062
26929
28313
26672
28657
26979
28373
26941
25829
26725
28594
28108
28420
27691
28654
27734
28844
27708
27544
26386
28572
26783
28693
27638
28796
30887
28861
28031
27716
27713
27602
28183
26864
30152
29222
28291
28852
28409
29126
27814
28711
28734
28693
29237
30476
28647
30249
28438
30676
28919
30054
29287
28828
29906
28950
29765
30005
31263
33578
29942
30833
30154
30754
30113
31216
30201
33410
30479
31408
31007
30683
31210
30252
31863
30716
31788
31463
32676
30573
32364
30003
32126
29638
31014
31833
31128
31159
31772
31087
31928
31498
31844
32361
32565
32564
32816
32472
33081
31885
33766
32306
32411
31209
33000
31591
32872
32262
33112
34603
34037
33191
33112
33038
33038
32261
33369
32184
34588
34352
33336
33672
32539
33828
32428
34355
32615
34785
33436
34402
32991
33960
33111
33282
33114
33644
32769
33144
33668
32766
33930
33173
33683
34520
31115
33987
32147
33080
32019
32836
31765
33123
30831
31850
30660
31515
30665
30895
30734
30536
30460
30888
30853
30456
30172
30354
29793
29710
26679
29014
27983
29428
28023
30195
27729
29803
26671
27631
27773
28224
27633
28511
28037
27399
28067
26874
26404
27302
26958
27944
26939
28395
26769
27493
27281
28394
26322
28440
25575
27598
25144
25841
27408
26476
26478
27058
26501
27320
26754
26571
27046
27310
27103
27434
26611
28354
26369
27870
25967
27336
25528
27793
25420
27226
26041
27639
28627
28445
27046
27257
26570
26628
26753
26746
28135
28402
27376
26009
28268
26729
27092
25925
25778
26091
27875
26943
28077
26758
27955
26594
28496
25937
27480
24869
28338
25507
28484
26095
28468
28364
28326
26397
27637
26179
27965
26815
26650
28479
28572
26358
28072
26261
28137
26161
28103
26161
28143
27393
28688
26052
28443
25630
28645
26324
28156
26980
27389
26895
27176
26949
27914
28081
30640
27137
28402
26656
28042
26620
28820
26693
30448
27082
28171
25834
27916
26660
27524
26443
28006
27504
28908
27619
27832
27206
27206
27632
27499
27674
25641
28038
27286
28308
26731
28177
26543
29298
25763
27626
27456
27766
27811
27760
28082
27936
27749
28298
27023
26510
28315
27506
29091
26812
28148
27545
27405
28094
27686
28298
27875
27946
27113
24386
27290
27955
28131
27715
28384
26973
28234
25697
27762
27844
28574
27770
28619
27572
27986
27806
27270
26730
26901
28324
27121
28582
27389
27868
28994
28089
27689
26894
27614
27209
28004
26169
29351
27734
27367
27952
27747
27750
27191
27470
27366
27617
28195
29107
27223
28430
26637
28528
27475
28324
28295
27437
29275
27995
29790
28018
30616
26394
29164
28804
30316
28824
30696
29026
30831
29847
30578
29085
31049
30259
31057
29733
32220
29745
30816
30256
31657
28962
31871
28610
31522
28295
29468
30477
30434
29740
31014
29555
31065
30064
30104
31159
32192
31895
32148
31599
33089
31580
32776
31151
31204
29967
31837
29985
31266
30181
30780
32589
31681
30613
30314
30047
29298
30202
29160
31695
30765
29318
29323
28800
28970
28315
29153
28185
29759
29062
29568
28242
29282
27991
28170
27700
28474
27271
27494
28283
27417
28548
28113
29210
30713
27111
29207
28033
28450
27898
28912
28195
30446
28447
28720
27223
28885
27995
27842
27434
28058
27762
28688
29073
28361
28819
28819
28634
28364
28378
24869
28480
27572
29248
28383
29601
27694
29880
25486
27598
28129
28919
28151
28680
28586
28608
28435
27830
26803
27348
27362
27213
26611
26868
26062
26166
26218
27836
25532
27634
25873
27890
25659
26330
29763
29708
30743
33280
33483
36722
37885
38992
42205
45209
47469
50404
52436
56386
57871
60927
63128
63819
64584
64530
64596
64575
64542
64529
64582
64546
60749
56990
54986
51340
48960
45177
41954
38831
35472
31381
28449
26129
24701
24707
22885
23442
23822
24390
25120
24999
26071
25418
26631
25197
27037
26506
29275
27750
29918
27786
30008
28301
28804
28764
29383
29164
29124
28699
27642
29716
28795
28187
28838
28235
28832
28271
29444
28395
29096
28989
29493
27107
29987
27239
28862
27304
28672
28934
27852
28403
28517
28535
29086
29265
30184
29255
29377
28483
29415
28519
29978
27594
31040
28316
29498
27440
29548
27461
29031
28232
29605
29655
30666
29358
29271
28955
29066
28578
29437
28751
30548
28698
30553
28271
30552
28413
31384
27768
31258
28569
30946
28833
30408
28679
30058
28761
31058
28017
30071
29181
29876
29877
30539
29636
31325
27862
31534
28990
31336
29273
31085
28764
29968
28066
30984
28763
30571
29776
30458
30156
29652
29742
30800
30482
31162
29788
29788
31413
29572
30848
29083
30645
28923
31406
29433
32172
29318
31844
29639
30702
30304
31078
30261
31397
30805
30545
33968
30914
31944
29678
31779
30449
30910
30215
31165
30846
32364
32164
31584
31827
31488
31489
31616
28320
31523
30879
32233
32023
32693
31303
33688
29688
31457
32158
32706
32465
32142
32953
32662
32783
32380
31802
32046
33119
32690
33506
32153
33224
32665
33825
33941
32961
33765
33408
33990
32329
30704
33868
33240
33581
33916
34000
33309
33381
31705
33605
33522
34799
33968
34357
34412
34501
34317
34284
33524
33119
34424
33443
35026
33762
34396
36644
34723
34884
34217
34644
34148
34875
33664
36696
35549
34794
34746
34608
35168
34519
34653
34386
34959
35675
35612
33762
34978
34171
35720
34143
34999
34332
33665
34417
33940
34381
34376
34965
36808
32756
34172
33041
33846
32650
33912
32550
35176
32268
33576
31107
32689
31180
32132
30347
32009
31016
32656
31423
31702
30920
31355
29991
30851
26578
31114
29345
30690
28903
30984
28309
30998
26621
29088
28567
29793
28330
29256
28873
29293
28281
29065
27050
28126
28638
28536
28425
27856
27924
28529
27905
29589
27245
29239
29239
27349
28686
27610
28203
29073
28049
28866
27680
28007
27454
29592
27263
29502
28254
29156
27951
28473
28083
28068
27555
28536
27115
27674
28605
28144
28893
28377
29001
29720
27318
29293
27729
29008
28428
28903
27771
28525
27108
28725
27702
28515
27767
27732
28715
27839
28301
28951
28997
28940
29019
28968
28417
28799
27024
28377
