ECG (1000 Hz)
2.5072
2.5016
2.5048
2.5113
2.5137
2.5161
2.5121
2.5072
2.5000
2.5032
2.5072
2.5072
2.5129
2.5129
2.5121
2.5096
2.5088
2.5048
2.5105
2.5056
2.5096
2.5153
2.5153
2.5105
2.5064
2.5000
2.4927
2.5056
2.5088
2.5096
2.5113
2.5121
2.5064
2.5032
2.5008
2.5000
2.5088
2.5105
2.5145
2.5169
2.5121
2.5064
2.5080
2.5032
2.5088
2.5129
2.5129
2.5137
2.5153
2.5088
2.5096
2.4935
2.5056
2.5096
2.5217
2.5129
2.5113
2.5080
2.5064
2.5000
2.5008
2.5056
2.5056
2.5105
2.5105
2.5056
2.5000
2.4992
2.5008
2.5048
2.5105
2.5064
2.5113
2.5145
2.5113
2.5088
2.5096
2.5088
2.5153
2.5129
2.5129
2.5121
2.5129
2.5064
2.5056
2.5113
2.5096
2.5129
2.5169
2.5113
2.5129
2.5056
2.5032
2.5064
2.5145
2.5105
2.5169
2.5161
2.5169
2.5121
2.5072
2.5064
2.5088
2.5080
2.5145
2.5161
2.5169
2.5113
2.5080
2.5056
2.5056
2.5105
2.5153
2.5145
2.5048
2.5113
2.4992
2.5000
2.5024
2.5096
2.5105
2.5129
2.5161
2.5129
2.4960
2.5072
2.5024
2.5088
2.5161
2.5153
2.5169
2.5105
2.5096
2.5032
2.5016
2.5040
2.5080
2.5113
2.5121
2.5121
2.5064
2.5032
2.5064
2.5040
2.5113
2.5153
2.5137
2.5113
2.5113
2.5096
2.5064
2.5048
2.4968
2.5048
2.5121
2.5129
2.5129
2.5088
2.5113
2.5096
2.5056
2.5105
2.5113
2.5080
2.5096
2.5088
2.5040
2.5016
2.5032
2.5072
2.5129
2.5129
2.5129
2.5137
2.5072
2.5016
2.5072
2.5088
2.5145
2.5096
2.5153
2.5153
2.5096
2.5056
2.5096
2.5105
2.5121
2.5177
2.5217
2.5185
2.5161
2.5096
2.5072
2.5040
2.5056
2.5193
2.5185
2.5145
2.5201
2.5080
2.5040
2.5072
2.5080
2.5121
2.5121
2.5137
2.5129
2.5121
2.5040
2.5056
2.5032
2.5080
2.5145
2.5161
2.5096
2.5121
2.5113
2.5040
2.5064
2.5105
2.5137
2.5153
2.5153
2.5137
2.5064
2.5040
2.5088
2.5048
2.5088
2.5121
2.5137
2.5121
2.5113
2.5056
2.5048
2.5008
2.5040
2.5113
2.5129
2.5145
2.5064
2.5088
2.5024
2.5008
2.5040
2.5088
2.5145
2.5193
2.5137
2.5113
2.5048
2.5040
2.5072
2.5113
2.5088
2.5177
2.5153
2.5096
2.5032
2.5040
2.5105
2.5185
2.5225
2.5217
2.5193
2.5177
2.5113
2.5072
2.5080
2.5129
2.5177
2.5169
2.5201
2.5169
2.5121
2.5056
2.5048
2.5048
2.5080
2.5129
2.5129
2.5129
2.5096
2.5096
2.5072
2.5145
2.5137
2.5193
2.5209
2.5217
2.5161
2.5137
2.5072
2.5105
2.5153
2.5193
2.5225
2.5209
2.5201
2.5169
2.5161
2.5080
2.5113
2.5145
2.5185
2.5225
2.5137
2.5129
2.5072
2.5016
2.5072
2.5113
2.5153
2.5185
2.5161
2.5137
2.5080
2.5040
2.5040
2.5064
2.5121
2.5153
2.5153
2.5129
2.5064
2.5008
2.5000
2.5032
2.5040
2.5096
2.5016
2.5032
2.5096
2.5080
2.5056
2.5056
2.5072
2.5105
2.5169
2.5153
2.5145
2.5113
2.5080
2.5048
2.5096
2.5105
2.5145
2.5129
2.5153
2.5088
2.5000
2.4992
2.5000
2.5056
2.5056
2.5096
2.5096
2.5056
2.5032
2.4984
2.5080
2.5080
2.5169
2.5145
2.5145
2.5121
2.5080
2.5048
2.5088
2.5096
2.5113
2.5145
2.5105
2.5145
2.5145
2.5064
2.5032
2.5056
2.5080
2.5113
2.5177
2.5121
2.5113
2.5080
2.5016
2.5032
2.5145
2.5185
2.5193
2.5193
2.5201
2.5161
2.5129
2.5242
2.5105
2.5169
2.5201
2.5225
2.5233
2.5193
2.5145
2.5153
2.5217
2.5250
2.5330
2.5370
2.5419
2.5419
2.5370
2.5225
2.5387
2.5395
2.5419
2.5443
2.5443
2.5403
2.5330
2.5250
2.5258
2.5185
2.5185
2.5209
2.5161
2.5056
2.5056
2.5032
2.4976
2.5000
2.5048
2.5080
2.5105
2.5096
2.5048
2.5000
2.4863
2.4992
2.5000
2.4968
2.4984
2.5008
2.4984
2.4919
2.4871
2.4847
2.4895
2.4943
2.5064
2.5088
2.5080
2.5056
2.4935
2.5024
2.5040
2.5096
2.5129
2.5153
2.5161
2.5129
2.5105
2.5032
2.5105
2.5177
2.5129
2.5169
2.5185
2.5169
2.5080
2.5024
2.4976
2.5064
2.5080
2.5105
2.5145
2.5145
2.5129
2.5080
2.5040
2.5080
2.5121
2.5225
2.5225
2.5233
2.5161
2.5145
2.5064
2.5121
2.5169
2.5225
2.5250
2.5250
2.5201
2.5145
2.5121
2.5113
2.5121
2.5113
2.5185
2.5177
2.5225
2.5209
2.5169
2.5121
2.5137
2.5145
2.5217
2.5233
2.5233
2.5185
2.5145
2.5105
2.5040
2.5121
2.5201
2.5177
2.5185
2.5217
2.5193
2.5096
2.5137
2.5145
2.5169
2.5233
2.5233
2.5233
2.5185
2.5129
2.5096
2.5145
2.5169
2.5225
2.5225
2.5209
2.5185
2.5129
2.5145
2.5137
2.5161
2.5201
2.5233
2.5217
2.5201
2.5169
2.5113
2.5121
2.5177
2.5217
2.5242
2.5250
2.5225
2.5201
2.5185
2.5129
2.5169
2.5201
2.5250
2.5274
2.5258
2.5225
2.5145
2.5185
2.5153
2.5193
2.5258
2.5274
2.5274
2.5258
2.5217
2.5153
2.5209
2.5250
2.5225
2.5274
2.5282
2.5274
2.5258
2.5193
2.5137
2.5129
2.5193
2.5225
2.5258
2.5209
2.5242
2.5177
2.5161
2.5217
2.5225
2.5266
2.5274
2.5306
2.5217
2.5217
2.5169
2.5153
2.5209
2.5258
2.5298
2.5290
2.5233
2.5282
2.5225
2.5217
2.5209
2.5274
2.5330
2.5298
2.5338
2.5298
2.5242
2.5169
2.5209
2.5258
2.5290
2.5298
2.5258
2.5282
2.5233
2.5161
2.5185
2.5233
2.5258
2.5290
2.5322
2.5322
2.5314
2.5282
2.5233
2.5306
2.5346
2.5387
2.5387
2.5403
2.5387
2.5314
2.5250
2.5258
2.5290
2.5387
2.5362
2.5387
2.5378
2.5354
2.5258
2.5282
2.5298
2.5362
2.5395
2.5403
2.5378
2.5338
2.5290
2.5250
2.5266
2.5306
2.5411
2.5443
2.5419
2.5403
2.5346
2.5290
2.5314
2.5370
2.5387
2.5378
2.5411
2.5387
2.5387
2.5346
2.5330
2.5419
2.5387
2.5411
2.5435
2.5435
2.5395
2.5330
2.5314
2.5362
2.5395
2.5411
2.5427
2.5435
2.5427
2.5362
2.5322
2.5314
2.5306
2.5395
2.5395
2.5395
2.5362
2.5306
2.5330
2.5298
2.5266
2.5322
2.5370
2.5370
2.5330
2.5274
2.5282
2.5217
2.5266
2.5290
2.5322
2.5330
2.5314
2.5282
2.5233
2.5177
2.5137
2.5185
2.5209
2.5209
2.5209
2.5201
2.5153
2.5088
2.5088
2.5153
2.5177
2.5193
2.5209
2.5177
2.5177
2.5145
2.5080
2.5072
2.5080
2.5105
2.5129
2.5137
2.5137
2.5080
2.5032
2.5008
2.5096
2.5217
2.5185
2.5105
2.5105
2.5105
2.5064
2.5016
2.5040
2.5105
2.5064
2.5072
2.5072
2.5072
2.5016
2.5016
2.4992
2.5056
2.5072
2.5064
2.5064
2.5008
2.4968
2.4927
2.4984
2.5024
2.5105
2.5113
2.5096
2.5105
2.5016
2.5016
2.5000
2.5016
2.5032
2.5088
2.5096
2.5088
2.5080
2.5024
2.5000
2.5056
2.5000
2.5040
2.5105
2.5080
2.5080
2.5024
2.4968
2.5032
2.5056
2.5105
2.5161
2.5121
2.5129
2.5056
2.5008
2.4992
2.5008
2.5096
2.5105
2.5161
2.5169
2.5080
2.5008
2.4984
2.4976
2.5000
2.5040
2.5056
2.5080
2.5048
2.5008
2.4935
2.4960
2.4984
2.5024
2.5016
2.5096
2.5088
2.5080
2.5016
2.4984
2.5032
2.5040
2.5088
2.5153
2.5096
2.5105
2.5056
2.4992
2.5016
2.5048
2.5153
2.5121
2.5113
2.5072
2.5024
2.5000
2.4968
2.5000
2.5032
2.5080
2.5080
2.5064
2.5048
2.5024
2.5040
2.5032
2.5064
2.5105
2.5137
2.5129
2.5000
2.4984
2.5000
2.5024
2.5008
2.5064
2.5088
2.5105
2.5105
2.5072
2.5072
2.5064
2.5040
2.5096
2.5137
2.5145
2.5177
2.5056
2.5000
2.4976
2.4960
2.4984
2.5056
2.5072
2.5096
2.5032
2.5024
2.5008
2.4992
2.5056
2.5096
2.5129
2.5121
2.5096
2.5072
2.4968
2.5080
2.5056
2.5064
2.5121
2.5169
2.5105
2.5088
2.5056
2.5024
2.5032
2.5056
2.5145
2.5113
2.5088
2.5096
2.5032
2.5024
2.5032
2.5040
2.5096
2.5121
2.5137
2.5105
2.5080
2.5024
2.4976
2.5008
2.5096
2.5064
2.5105
2.5121
2.5080
2.5008
2.5000
2.4976
2.5056
2.5105
2.5113
2.5129
2.5088
2.5040
2.4960
2.4992
2.5072
2.5121
2.5105
2.5096
2.5072
2.5040
2.5000
2.5024
2.4992
2.5040
2.5113
2.5161
2.5088
2.5105
2.5056
2.5008
2.4960
2.5032
2.5088
2.5145
2.5121
2.5145
2.5080
2.5032
2.5016
2.5056
2.5048
2.5088
2.5072
2.5032
2.5056
2.5000
2.4968
2.5016
2.5032
2.5088
2.5121
2.5129
2.5056
2.5000
2.5016
2.5040
2.5096
2.5161
2.5145
2.5145
2.5072
2.5024
2.4984
2.5064
2.5072
2.5113
2.5169
2.5129
2.5145
2.5056
2.5008
2.5008
2.5056
2.5088
2.5121
2.5088
2.5105
2.5032
2.4968
2.4968
2.5024
2.5072
2.5129
2.5121
2.5137
2.5088
2.5048
2.5032
2.5048
2.5032
2.5096
2.5121
2.5145
2.5080
2.5048
2.5024
2.5048
2.5032
2.5040
2.5096
2.5129
2.5129
2.5096
2.5040
2.5040
2.5088
2.5080
2.5169
2.5177
2.5209
2.5096
2.5088
2.5024
2.5088
2.5105
2.5153
2.5193
2.5145
2.5121
2.5032
2.5016
2.5000
2.5024
2.5137
2.5145
2.5129
2.5225
2.5080
2.5137
2.5016
2.5032
2.5072
2.5113
2.5145
2.5105
2.5121
2.5096
2.5040
2.5008
2.5048
2.5153
2.5137
2.5161
2.5105
2.5056
2.5040
2.5056
2.5080
2.5064
2.5129
2.5153
2.5169
2.5121
2.5121
2.5080
2.5072
2.5016
2.5145
2.5169
2.5096
2.5056
2.5016
2.5016
2.5000
2.5016
2.5080
2.5088
2.5088
2.5113
2.5072
2.5024
2.5024
2.5032
2.5161
2.5105
2.5161
2.5113
2.5096
2.4984
2.4960
2.5000
2.5080
2.5169
2.5169
2.5177
2.5129
2.5064
2.5072
2.5056
2.5121
2.5137
2.5161
2.5153
2.5145
2.5113
2.5088
2.5048
2.5080
2.5105
2.5129
2.5185
2.5145
2.5064
2.5024
2.5008
2.5016
2.5048
2.5121
2.5169
2.5088
2.5121
2.5096
2.5048
2.5024
2.5056
2.5088
2.5145
2.5137
2.5177
2.5096
2.5072
2.5040
2.5064
2.5105
2.5137
2.5177
2.5177
2.5088
2.5056
2.5072
2.5056
2.5088
2.5161
2.5169
2.5201
2.5129
2.5056
2.5048
2.5040
2.5056
2.5121
2.5137
2.5169
2.5153
2.5096
2.5024
2.5072
2.5105
2.5113
2.5153
2.5169
2.5169
2.5121
2.5072
2.5024
2.5008
2.5056
2.5113
2.5153
2.5113
2.5080
2.5072
2.5056
2.5080
2.5121
2.5161
2.5153
2.5225
2.5209
2.5145
2.5121
2.5113
2.5137
2.5153
2.5177
2.5225
2.5209
2.5153
2.5105
2.5048
2.5088
2.5177
2.5169
2.5177
2.5201
2.5185
2.5137
2.5088
2.5088
2.5129
2.5185
2.5169
2.5193
2.5161
2.5113
2.5016
2.5113
2.5096
2.5129
2.5169
2.5250
2.5177
2.5153
2.5137
2.5088
2.5161
2.5217
2.5233
2.5250
2.5225
2.5209
2.5137
2.5056
2.5080
2.5137
2.5145
2.5169
2.5177
2.5193
2.5121
2.5024
2.5032
2.5032
2.5072
2.5121
2.5137
2.5129
2.5113
2.5056
2.5008
2.5032
2.5121
2.5185
2.5145
2.5129
2.5096
2.5040
2.5040
2.5064
2.5040
2.5121
2.5169
2.5145
2.5137
2.5113
2.5032
2.5040
2.5064
2.5096
2.5113
2.5177
2.5145
2.5145
2.5064
2.5016
2.4976
2.5056
2.5161
2.5145
2.5169
2.5113
2.5088
2.5080
2.5016
2.5064
2.5121
2.5201
2.5137
2.5105
2.5080
2.5032
2.5024
2.5048
2.5129
2.5169
2.5193
2.5161
2.5113
2.5056
2.5096
2.5080
2.5121
2.5177
2.5121
2.5145
2.5113
2.5072
2.5056
2.5056
2.5113
2.5185
2.5096
2.5169
2.5169
2.5129
2.5088
2.5056
2.5064
2.5113
2.5161
2.5185
2.5177
2.5177
2.5137
2.5153
2.5088
2.5105
2.5185
2.5266
2.5266
2.5217
2.5274
2.5233
2.5290
2.5378
2.5459
2.5556
2.5499
2.5515
2.5540
2.5451
2.5427
2.5403
2.5475
2.5427
2.5443
2.5346
2.5314
2.5242
2.5177
2.5169
2.5193
2.5217
2.5201
2.5217
2.5161
2.5105
2.5024
2.5008
2.5008
2.5088
2.5121
2.5088
2.5040
2.5008
2.4927
2.4895
2.4855
2.4951
2.4968
2.5016
2.4984
2.5016
2.4951
2.5008
2.4976
2.5048
2.5096
2.5105
2.5096
2.5105
2.5088
2.5072
2.5088
2.5105
2.5153
2.5129
2.5217
2.5201
2.5169
2.5137
2.5080
2.5056
2.5113
2.5169
2.5185
2.5209
2.5153
2.5137
2.5129
2.5105
2.5129
2.5161
2.5209
2.5201
2.5185
2.5129
2.5105
2.5113
2.5088
2.5153
2.5185
2.5217
2.5225
2.5225
2.5169
2.5177
2.5153
2.5177
2.5185
2.5217
2.5233
2.5193
2.5129
2.5056
2.5096
2.5153
2.5193
2.5242
2.5266
2.5225
2.5153
2.5129
2.5137
2.5145
2.5169
2.5185
2.5177
2.5177
2.5129
2.5113
2.5113
2.5096
2.5153
2.5177
2.5185
2.5209
2.5193
2.5193
2.5129
2.5129
2.5201
2.5217
2.5258
2.5274
2.5225
2.5209
2.5185
2.5153
2.5169
2.5225
2.5258
2.5266
2.5266
2.5225
2.5233
2.5169
2.5193
2.5177
2.5258
2.5282
2.5266
2.5266
2.5185
2.5145
2.5177
2.5161
2.5169
2.5217
2.5193
2.5201
2.5193
2.5137
2.5105
2.5185
2.5282
2.5266
2.5274
2.5250
2.5193
2.5153
2.5153
2.5193
2.5185
2.5274
2.5225
2.5290
2.5258
2.5233
2.5121
2.5185
2.5250
2.5258
2.5274
2.5225
2.5250
2.5169
2.5129
2.5121
2.5096
2.5145
2.5266
2.5233
2.5290
2.5209
2.5185
2.5161
2.5225
2.5258
2.5298
2.5330
2.5346
2.5427
2.5322
2.5274
2.5217
2.5258
2.5298
2.5330
2.5298
2.5322
2.5282
2.5201
2.5250
2.5258
2.5282
2.5330
2.5330
2.5322
2.5306
2.5225
2.5233
2.5201
2.5266
2.5306
2.5346
2.5322
2.5298
2.5266
2.5354
2.5233
2.5298
2.5338
2.5378
2.5370
2.5354
2.5306
2.5250
2.5250
2.5282
2.5298
2.5370
2.5362
2.5362
2.5298
2.5266
2.5233
2.5137
2.5282
2.5362
2.5387
2.5427
2.5387
2.5330
2.5282
2.5314
2.5354
2.5370
2.5459
2.5395
2.5370
2.5346
2.5314
2.5282
2.5370
2.5403
2.5411
2.5387
2.5395
2.5387
2.5306
2.5258
2.5290
2.5330
2.5443
2.5435
2.5443
2.5403
2.5314
2.5233
2.5298
2.5354
2.5443
2.5483
2.5483
2.5435
2.5451
2.5330
2.5338
2.5314
2.5403
2.5403
2.5403
2.5411
2.5354
2.5354
2.5290
2.5298
2.5362
2.5395
2.5387
2.5395
2.5378
2.5282
2.5282
2.5282
2.5290
2.5282
2.5266
2.5322
2.5290
2.5274
2.5193
2.5201
2.5242
2.5266
2.5314
2.5258
2.5233
2.5185
2.5145
2.5113
2.5121
2.5169
2.5193
2.5250
2.5209
2.5088
2.5129
2.5105
2.5056
2.5096
2.5153
2.5185
2.5153
2.5113
2.5096
2.5048
2.5000
2.5048
2.5113
2.5153
2.5225
2.5185
2.5129
2.5105
2.5000
2.5040
2.5080
2.5105
2.5129
2.5137
2.5072
2.5056
2.5032
2.5016
2.4992
2.5048
2.5137
2.5121
2.5105
2.5048
2.5008
2.4968
2.4968
2.5032
2.5080
2.5096
2.5056
2.5016
2.5032
2.5000
2.4968
2.5000
2.5105
2.5080
2.5072
2.5088
2.5056
2.5024
2.4943
2.4960
2.5064
2.5056
2.5064
2.5056
2.5048
2.4992
2.4951
2.4976
2.5008
2.5064
2.5113
2.5048
2.5080
2.5000
2.4943
2.4919
2.4984
2.5072
2.5145
2.5105
2.5088
2.5040
2.4984
2.4951
2.5048
2.5016
2.5080
2.5096
2.5072
2.5024
2.4960
2.4992
2.4992
2.5040
2.5113
2.5177
2.5105
2.5096
2.5016
2.4960
2.4992
2.5040
2.5225
2.5153
2.5169
2.5096
2.5072
2.5048
2.5008
2.5008
2.5080
2.5145
2.5145
2.5113
2.5072
2.5016
2.4976
2.4976
2.5016
2.5064
2.5121
2.5105
2.5088
2.5056
2.5016
2.5016
2.5032
2.5064
2.5032
2.5080
2.5056
2.5024
2.4951
2.4960
2.5008
2.5056
2.5113
2.5129
2.5153
2.5121
2.5032
2.5000
2.5008
2.5048
2.5137
2.5161
2.5153
2.5040
2.5016
2.5056
2.5040
2.5096
2.5121
2.5145
2.5145
2.5145
2.5121
2.5113
2.5040
2.5088
2.5145
2.5169
2.5153
2.5121
2.5080
2.5064
2.4976
2.5040
2.5096
2.5121
2.5153
2.5145
2.5113
2.5056
2.5040
2.4976
2.5088
2.5129
2.5113
2.5258
2.5121
2.5064
2.4984
2.5008
2.5024
2.5088
2.5153
2.5153
2.5137
2.5161
2.5105
2.5088
2.5121
2.5105
2.5105
2.5137
2.5072
2.5080
2.4992
2.4992
2.4976
2.5016
2.5072
2.5129
2.5153
2.5201
2.5080
2.5032
2.5000
2.5000
2.5048
2.5088
2.5121
2.5137
2.5088
2.5040
2.4984
2.5040
2.5080
2.5129
2.5201
2.5145
2.5088
2.5088
2.5040
2.4992
2.5040
2.5137
2.5137
2.5137
2.5040
2.5072
2.5032
2.4992
2.5000
2.5048
2.5088
2.5129
2.5113
2.5008
2.5072
2.5064
2.5024
2.5096
2.5121
2.5145
2.5129
2.5064
2.5008
2.5024
2.5024
2.5008
2.5129
2.5137
2.5153
2.5096
2.5096
2.5032
2.5016
2.5032
2.5088
2.5080
2.5145
2.5137
2.5105
2.5064
2.5056
2.5032
2.5040
2.5121
2.5096
2.5096
2.5072
2.5032
2.5000
2.5024
2.5056
2.5161
2.5185
2.5185
2.5169
2.5145
2.5137
2.5048
2.5064
2.5080
2.5137
2.5137
2.5169
2.5088
2.5032
2.5016
2.5000
2.5048
2.5137
2.5137
2.5153
2.5121
2.5088
2.5008
2.5056
2.5105
2.5145
2.5137
2.5169
2.5096
2.5072
2.5040
2.5040
2.5048
2.5048
2.5137
2.5145
2.5105
2.5056
2.5000
2.4960
2.4976
2.4992
2.5016
2.5113
2.5080
2.5040
2.5048
2.4992
2.5000
2.5032
2.5129
2.5177
2.5153
2.5201
2.5056
2.5040
2.4960
2.5072
2.5113
2.5153
2.5161
2.5274
2.5096
2.5088
2.5016
2.5048
2.5105
2.5169
2.5217
2.5185
2.5145
2.5137
2.5088
2.5048
2.5080
2.5129
2.5129
2.5161
2.5113
2.5056
2.5048
2.5024
2.5032
2.5113
2.5161
2.5161
2.5161
2.5105
2.5048
2.5024
2.5000
2.5048
2.5048
2.5088
2.5113
2.5072
2.5008
2.5056
2.5024
2.5072
2.5105
2.5137
2.5113
2.5161
2.5113
2.5080
2.5040
2.5080
2.5113
2.5129
2.5113
2.5153
2.5113
2.5032
2.5024
2.5016
2.5113
2.5145
2.5209
2.5129
2.5137
2.5177
2.5113
2.5040
2.5056
2.5113
2.5161
2.5169
2.5129
2.5080
2.5064
2.5080
2.5056
2.5056
2.5185
2.5209
2.5209
2.5193
2.5137
2.5024
2.5096
2.5105
2.5121
2.5145
2.5145
2.5113
2.5105
2.5072
2.5032
2.5048
2.5072
2.5121
2.5105
2.5088
2.5072
2.5032
2.4984
2.4968
2.5056
2.5137
2.5185
2.5185
2.5153
2.5129
2.5113
2.5105
2.5177
2.5201
2.5250
2.5250
2.5169
2.5129
2.5096
2.5056
2.5129
2.5129
2.5209
2.5217
2.5233
2.5169
2.5105
2.5072
2.5072
2.5177
2.5177
2.5201
2.5193
2.5096
2.5137
2.5088
2.5096
2.5169
2.5185
2.5225
2.5233
2.5193
2.5185
2.5169
2.5105
2.5169
2.5169
2.5225
2.5282
2.5250
2.5217
2.5129
2.5105
2.5113
2.5121
2.5169
2.5185
2.5177
2.5161
2.5072
2.5016
2.4976
2.5080
2.5121
2.5161
2.5153
2.5105
2.5088
2.5056
2.5016
2.5056
2.5129
2.5137
2.5137
2.5153
2.5217
2.5048
2.5000
2.5072
2.5040
2.5137
2.5201
2.5185
2.5177
2.5153
2.5048
2.5048
2.5121
2.5161
2.5193
2.5169
2.5185
2.5080
2.5024
2.5024
2.5056
2.5153
2.5169
2.5185
2.5161
2.5121
2.5072
2.5040
2.5056
2.5096
2.5153
2.5169
2.5185
2.5129
2.5064
2.5040
2.5000
2.5080
2.5113
2.5185
2.5080
2.5121
2.5129
2.5064
2.5024
2.5072
2.5153
2.5217
2.5201
2.5185
2.5129
2.5072
2.5056
2.5032
2.5105
2.5169
2.5145
2.5129
2.5121
2.5056
2.5040
2.5048
2.5080
2.5145
2.5193
2.5209
2.5193
2.5161
2.5129
2.5105
2.5177
2.5282
2.5233
2.5306
2.5209
2.5266
2.5193
2.5233
2.5274
2.5354
2.5395
2.5419
2.5419
2.5459
2.5403
2.5395
2.5378
2.5467
2.5467
2.5467
2.5451
2.5403
2.5322
2.5233
2.5153
2.5161
2.5169
2.5193
2.5121
2.5137
2.5080
2.5024
2.5024
2.5008
2.5048
2.5105
2.5056
2.5056
2.5024
2.4927
2.4887
2.4871
2.4903
2.4984
2.4919
2.5072
2.5008
2.4960
2.5016
2.5016
2.5040
2.5105
2.5121
2.5233
2.5145
2.5161
2.5088
2.5072
2.5032
2.5105
2.5169
2.5217
2.5193
2.5145
2.5185
2.5080
2.5072
2.5137
2.5161
2.5153
2.5209
2.5169
2.5153
2.5105
2.5056
2.5121
2.5145
2.5193
2.5217
2.5201
2.5153
2.5105
2.5137
2.5161
2.5153
2.5177
2.5193
2.5298
2.5088
2.5169
2.5153
2.5153
2.5145
2.5217
2.5169
2.5274
2.5233
2.5129
2.5096
2.5153
2.5153
2.5209
2.5233
2.5266
2.5217
2.5209
2.5290
2.5113
2.5161
2.5193
2.5217
2.5233
2.5250
2.5217
2.5201
2.5129
2.5105
2.5129
2.5185
2.5193
2.5322
2.5161
2.5161
2.5105
2.5177
2.5153
2.5169
2.5193
2.5201
2.5209
2.5201
2.5161
2.5161
2.5129
2.5258
2.5290
2.5282
2.5258
2.5193
2.5201
2.5153
2.5137
2.5161
2.5209
2.5193
2.5233
2.5290
2.5153
2.5209
2.5113
2.5169
2.5153
2.5185
2.5209
2.5177
2.5137
2.5145
2.5121
2.5201
2.5209
2.5242
2.5298
2.5290
2.5250
2.5217
2.5169
2.5193
2.5266
2.5298
2.5298
2.5282
2.5242
2.5193
2.5201
2.5145
2.5161
2.5225
2.5258
2.5290
2.5290
2.5209
2.5225
2.5185
2.5258
2.5225
2.5298
2.5330
2.5314
2.5306
2.5306
2.5217
2.5193
2.5233
2.5282
2.5306
2.5338
2.5282
2.5274
2.5209
2.5185
2.5161
2.5242
2.5306
2.5330
2.5322
2.5298
2.5225
2.5233
2.5250
2.5282
2.5298
2.5322
2.5290
2.5362
2.5242
2.5177
2.5177
2.5201
2.5322
2.5306
2.5346
2.5354
2.5282
2.5266
2.5225
2.5225
2.5282
2.5322
2.5290
2.5330
2.5314
2.5242
2.5242
2.5209
2.5274
2.5290
2.5395
2.5370
2.5370
2.5242
2.5250
2.5282
2.5306
2.5378
2.5403
2.5395
2.5370
2.5314
2.5266
2.5258
2.5258
2.5338
2.5346
2.5378
2.5403
2.5387
2.5274
2.5266
2.5322
2.5306
2.5338
2.5362
2.5362
2.5354
2.5306
2.5258
2.5258
2.5362
2.5370
2.5362
2.5378
2.5411
2.5338
2.5290
2.5250
2.5298
2.5330
2.5387
2.5395
2.5427
2.5362
2.5290
2.5250
2.5201
2.5346
2.5322
2.5395
2.5395
2.5354
2.5290
2.5225
2.5282
2.5370
2.5354
2.5499
2.5362
2.5370
2.5298
2.5282
2.5225
2.5290
2.5338
2.5362
2.5378
2.5338
2.5362
2.5225
2.5137
2.5161
2.5177
2.5137
2.5233
2.5217
2.5193
2.5153
2.5129
2.5137
2.5169
2.5193
2.5193
2.5217
2.5201
2.5169
2.5145
2.5080
2.5040
2.4976
2.5105
2.5113
2.5088
2.5088
2.5072
2.5000
2.4984
2.5032
2.5032
2.5088
2.5072
2.5064
2.5040
2.4984
2.4839
2.5032
2.5024
2.5064
2.5072
2.5048
2.5040
2.4984
2.4960
2.4976
2.5016
2.5121
2.5129
2.5121
2.5129
2.5056
2.5008
2.4968
2.5024
2.5088
2.5088
2.5088
2.5064
2.5032
2.5000
2.5032
2.4943
2.5008
2.5000
2.5105
2.5040
2.5000
2.4943
2.4976
2.4976
2.4984
2.5064
2.5088
2.5056
2.5032
2.5080
2.5016
2.4992
2.5024
2.5064
2.5105
2.5105
2.5064
2.5032
2.5096
2.4951
2.4960
2.4968
2.5016
2.5072
2.5072
2.5088
2.5040
2.5048
2.5048
2.5024
2.5072
2.5105
2.5056
2.5000
2.4927
2.4935
2.4943
2.4968
2.5008
2.5040
2.5064
2.5064
2.5016
2.4960
2.4976
2.4960
2.5105
2.5121
2.5113
2.5096
2.5056
2.5032
2.4976
2.5040
2.5024
2.5064
2.5201
2.5137
2.5137
2.5024
2.5032
2.4984
2.5024
2.5096
2.5096
2.5105
2.5072
2.5048
2.4976
2.4992
2.4984
2.5072
2.5113
2.5113
2.5121
2.5080
2.5048
2.5048
2.5153
2.5105
2.5064
2.5137
2.5137
2.5088
2.5056
2.5048
2.5040
2.5040
2.5129
2.5137
2.5129
2.5121
2.5088
2.5048
2.5024
2.5000
2.5072
2.5105
2.5121
2.5096
2.5080
2.5032
2.5008
2.4960
2.4984
2.5088
2.5145
2.5121
2.5040
2.5024
2.4976
2.4943
2.4960
2.5032
2.5080
2.5088
2.5113
2.5032
2.4992
2.5016
2.5088
2.5113
2.5153
2.5161
2.5153
2.5137
2.5096
2.5032
2.5056
2.5121
2.5129
2.5161
2.5129
2.5048
2.5064
2.5008
2.4992
2.5032
2.5080
2.5056
2.5105
2.5129
2.5072
2.5032
2.5016
2.5048
2.5088
2.5024
2.5153
2.5105
2.5113
2.5064
2.5008
2.5016
2.5113
2.5137
2.5145
2.5153
2.5113
2.5096
2.5024
2.5040
2.5056
2.5129
2.5161
2.5185
2.5153
2.5072
2.5008
2.4992
2.5056
2.5080
2.5121
2.5137
2.5088
2.5080
2.5048
2.4992
2.5024
2.5080
2.5121
2.5129
2.5153
2.5105
2.5105
2.5024
2.5000
2.5008
2.5145
2.5113
2.5137
2.5137
2.5113
2.5040
2.5161
2.5056
2.5113
2.5129
2.5129
2.5153
2.5072
2.5032
2.5016
2.5056
2.5113
2.5153
2.5121
2.5266
2.5145
2.5096
2.5040
2.5048
2.5072
2.5121
2.5121
2.5137
2.5113
2.5088
2.5040
2.5008
2.5032
2.5032
2.5121
2.5129
2.5113
2.5088
2.5064
2.5008
2.5040
2.5064
2.5137
2.5161
2.5145
2.5129
2.5056
2.5016
2.5032
2.5080
2.5121
2.5145
2.5185
2.5121
2.5080
2.5096
2.5008
2.5000
2.5088
2.5121
2.5250
2.5161
2.5169
2.5056
2.5032
2.5032
2.5080
2.5121
2.5185
2.5153
2.5145
2.5088
2.5040
2.4992
2.5064
2.5137
2.5290
2.5177
2.5105
2.5161
2.5096
2.5072
2.5040
2.5088
2.5153
2.5185
2.5161
2.5088
2.5096
2.5056
2.5096
2.5129
2.5153
2.5185
2.5145
2.5145
2.5113
2.4992
2.5080
2.5113
2.5129
2.5177
2.5169
2.5169
2.5209
2.5113
2.5105
2.5169
2.5137
2.5137
2.5185
2.5177
2.5121
2.5024
2.4960
2.5040
2.5105
2.5121
2.5169
2.5209
2.5105
2.5056
2.5016
2.5056
2.5088
2.5169
2.5153
2.5209
2.5193
2.5153
2.5153
2.5113
2.5072
2.5113
2.5153
2.5185
2.5193
2.5169
2.5129
2.5113
2.5105
2.5105
2.5153
2.5201
2.5177
2.5169
2.5121
2.5064
2.5056
2.5129
2.5040
2.5129
2.5185
2.5193
2.5161
2.5121
2.5088
2.5096
2.5145
2.5201
2.5250
2.5185
2.5161
2.5161
2.5129
2.5129
2.5153
2.5161
2.5193
2.5233
2.5217
2.5161
2.5129
2.5016
2.5088
2.5169
2.5225
2.5209
2.5242
2.5177
2.5121
2.5121
2.5121
2.5145
2.5209
2.5201
2.5193
2.5193
2.5161
2.5105
2.5064
2.5121
2.5169
2.5177
2.5169
2.5177
2.5121
2.5080
2.5193
2.5096
2.5177
2.5201
2.5233
2.5225
2.5217
2.5145
2.5129
2.5096
2.5177
2.5201
2.5153
2.5217
2.5161
2.5113
2.5064
2.5056
2.5129
2.5145
2.5201
2.5185
2.5185
2.5177
2.5161
2.5129
2.5177
2.5217
2.5250
2.5258
2.5266
2.5177
2.5145
2.5072
2.5137
2.5225
2.5177
2.5242
2.5250
2.5209
2.5161
2.5129
2.5193
2.5201
2.5250
2.5233
2.5266
2.5250
2.5209
2.5169
2.5161
2.5225
2.5266
2.5290
2.5274
2.5274
2.5137
2.5258
2.5161
2.5177
2.5233
2.5266
2.5274
2.5233
2.5242
2.5193
2.5113
2.5129
2.5185
2.5201
2.5225
2.5209
2.5193
2.5201
2.5185
2.5153
2.5193
2.5242
2.5266
2.5258
2.5233
2.5185
2.5105
2.5105
2.5096
2.5161
2.5153
2.5137
2.5153
2.5153
2.5096
2.5024
2.5032
2.5105
2.5129
2.5177
2.5177
2.5161
2.5113
2.5080
2.5064
2.5088
2.5088
2.5145
2.5193
2.5121
2.5137
2.5113
2.5129
2.5088
2.5105
2.5177
2.5209
2.5209
2.5201
2.5177
2.5121
2.5113
2.5129
2.5153
2.5193
2.5242
2.5169
2.5233
2.5137
2.5113
2.5137
2.5096
2.5129
2.5121
2.5137
2.5096
2.5072
2.5040
2.5096
2.5153
2.5161
2.5193
2.5185
2.5153
2.5064
2.5080
2.5137
2.5121
2.5137
2.5209
2.5185
2.5193
2.5169
2.5113
2.5105
2.5153
2.5242
2.5225
2.5298
2.5258
2.5258
2.5209
2.5169
2.5161
2.5233
2.5314
2.5290
2.5322
2.5322
2.5290
2.5306
2.5298
2.5338
2.5387
2.5491
2.5451
2.5459
2.5443
2.5435
2.5395
2.5378
2.5467
2.5483
2.5483
2.5451
2.5354
2.5298
2.5185
2.5129
2.5105
2.5105
2.5121
2.5064
2.5105
2.5056
2.4992
2.4968
2.5008
2.5064
2.5096
2.5121
2.5096
2.5056
2.5040
2.4943
2.4976
2.4984
2.5040
2.5016
2.5008
2.4992
2.4976
2.4968
2.4992
2.5024
2.5040
2.5129
2.5161
2.5080
2.5080
2.5024
2.5096
2.5137
2.5137
2.5177
2.5193
2.5169
2.5161
2.5137
2.5105
2.5105
2.5145
2.5169
2.5242
2.5193
2.5169
2.5209
2.5137
2.5153
2.5193
2.5185
2.5242
2.5217
2.5217
2.5129
2.5105
2.5113
2.5161
2.5185
2.5201
2.5193
2.5169
2.5121
2.5121
2.5008
2.5105
2.5185
2.5225
2.5258
2.5242
2.5290
2.5209
2.5193
2.5209
2.5250
2.5290
2.5282
2.5290
2.5258
2.5209
2.5137
2.5113
2.5185
2.5217
2.5217
2.5225
2.5242
2.5185
2.5201
2.5113
2.5088
2.5193
2.5209
2.5217
2.5233
2.5177
2.5161
2.5153
2.5129
2.5161
2.5201
2.5193
2.5233
2.5225
2.5193
2.5121
2.4992
2.5137
2.5193
2.5242
2.5233
2.5242
2.5209
2.5233
2.5153
2.5185
2.5217
2.5250
2.5266
2.5258
2.5185
2.5201
2.5209
2.5209
2.5225
2.5274
2.5242
2.5306
2.5233
2.5177
2.5129
2.5201
2.5225
2.5266
2.5258
2.5217
2.5298
2.5250
2.5225
2.5217
2.5266
2.5306
2.5290
2.5306
2.5250
2.5258
2.5185
2.5201
2.5137
2.5169
2.5274
2.5274
2.5274
2.5314
2.5274
2.5282
2.5225
2.5266
2.5282
2.5290
2.5314
2.5322
2.5274
2.5242
2.5185
2.5225
2.5314
2.5298
2.5306
2.5298
2.5250
2.5217
2.5185
2.5169
2.5233
2.5266
2.5306
2.5322
2.5338
2.5322
2.5298
2.5282
2.5298
2.5322
2.5370
2.5362
2.5354
2.5346
2.5330
2.5242
2.5290
2.5306
2.5370
2.5354
2.5378
2.5322
2.5330
2.5306
2.5266
2.5314
2.5378
2.5338
2.5362
2.5435
2.5338
2.5282
2.5250
2.5266
2.5330
2.5354
2.5338
2.5330
2.5322
2.5225
2.5298
2.5233
2.5306
2.5362
2.5395
2.5378
2.5362
2.5338
2.5282
2.5322
2.5338
2.5395
2.5370
2.5427
2.5395
2.5370
2.5346
2.5338
2.5314
2.5354
2.5411
2.5419
2.5419
2.5387
2.5314
2.5338
2.5354
2.5378
2.5378
2.5427
2.5411
2.5370
2.5395
2.5346
2.5354
2.5403
2.5443
2.5387
2.5451
2.5370
2.5378
2.5483
2.5258
2.5338
2.5370
2.5403
2.5411
2.5403
2.5378
2.5395
2.5322
2.5362
2.5362
2.5395
2.5395
2.5354
2.5354
2.5306
2.5290
2.5290
2.5322
2.5290
2.5282
2.5354
2.5346
2.5298
2.5282
2.5242
2.5250
2.5258
2.5274
2.5298
2.5290
2.5250
2.5169
2.5209
2.5201
2.5233
2.5258
2.5338
2.5242
2.5225
2.5177
2.5129
2.5105
2.5153
2.5185
2.5185
2.5185
2.5177
2.5145
2.5096
2.5072
2.5032
2.5088
2.5121
2.5096
2.5096
2.5137
2.5040
2.5032
2.5016
2.5040
2.5121
2.5096
2.5113
2.5153
2.5064
2.5000
2.4984
2.5040
2.5072
2.5137
2.5129
2.5096
2.5113
2.5072
2.5024
2.5048
2.5064
2.5105
2.5185
2.5096
2.5105
2.5008
2.5048
2.5048
2.5040
2.5080
2.5080
2.5113
2.5137
2.5064
2.5000
2.5024
2.5040
2.5064
2.5096
2.5088
2.5080
2.5121
2.5000
2.4943
2.5048
2.5048
2.5024
2.5048
2.5040
2.4984
2.4968
2.4960
2.4992
2.5048
2.5137
2.5080
2.5145
2.5105
2.5096
2.5040
2.5088
2.5072
2.5113
2.5129
2.5113
2.5137
2.5145
2.5048
2.4984
2.5008
2.5113
2.5129
2.5121
2.5113
2.4968
2.5056
2.4984
2.5000
2.5080
2.5032
2.5064
2.5080
2.5072
2.5032
2.5024
2.5040
2.5169
2.5105
2.5113
2.5113
2.5129
2.5064
2.4992
2.4984
2.4960
2.5048
2.5137
2.5137
2.5169
2.5064
2.5096
2.5048
2.5137
2.5121
2.5129
2.5137
2.5096
2.5121
2.5088
2.5056
2.4976
2.5024
2.5080
2.5129
2.5129
2.5121
2.5048
2.4911
2.5000
2.5040
2.5072
2.5233
2.5121
2.5088
2.5072
2.5008
2.5048
2.5080
2.5072
2.5137
2.5161
2.5185
2.5145
2.5113
2.5088
2.5088
2.5064
2.5096
2.5105
2.5121
2.5193
2.5032
2.5016
2.5008
2.5016
2.4992
2.5032
2.5072
2.5064
2.5040
2.5024
2.4927
2.5032
2.5137
2.5153
2.5145
2.5193
2.5185
2.5088
2.5032
2.5024
2.5121
2.5177
2.5290
2.5121
2.5129
2.5008
2.5040
2.5032
2.5048
2.5169
2.5088
2.5080
2.5113
2.5129
2.5024
2.4992
2.5072
2.5105
2.5129
2.5169
2.5153
2.5088
2.5105
2.5040
2.5048
2.5080
2.5145
2.5153
2.5129
2.5161
2.5096
2.5016
2.5056
2.5056
2.5056
2.5121
2.5080
2.5072
2.5080
2.5032
2.5016
2.5040
2.5080
2.5129
2.5153
2.5113
2.5088
2.5056
2.5072
2.5056
2.5113
2.5161
2.5169
2.5137
2.5169
2.5096
2.5072
2.5072
2.5064
2.5105
2.5145
2.5169
2.5137
2.5072
2.5048
2.5024
2.5032
2.5048
2.5129
2.5121
2.5121
2.5096
2.5040
2.4968
2.5040
2.5048
2.5056
2.5113
2.5153
2.5161
2.5129
2.5088
2.5032
2.5064
2.5105
2.5145
2.5137
2.5161
2.5113
2.5088
2.5000
2.5040
2.5105
2.5121
2.5121
2.5096
2.5096
2.5056
2.5088
2.5032
2.5096
2.5080
2.5129
2.5153
2.5129
2.5088
2.5056
2.5008
2.5040
2.5064
2.5080
2.5105
2.5096
2.5105
2.5032
2.5008
2.5032
2.5048
2.5096
2.5105
2.5153
2.5145
2.5088
2.5064
2.5113
2.5113
2.5153
2.5185
2.5185
2.5153
2.5129
2.5064
2.5032
2.5024
2.5056
2.5088
2.5145
2.5121
2.5121
2.5072
2.5056
2.5000
2.5088
2.5121
2.5161
2.5177
2.5217
2.5096
2.5016
2.5016
2.5048
2.5129
2.5096
2.5080
2.5096
2.5096
2.5096
2.5048
2.5040
2.5088
2.5129
2.5169
2.5169
2.5129
2.5113
2.5064
2.5048
2.5088
2.5161
2.5145
2.5153
2.5129
2.5064
2.5048
2.5008
2.5072
2.5121
2.5169
2.5161
2.5169
2.5129
2.5072
2.5064
2.5080
2.5105
2.5169
2.5177
2.5105
2.5137
2.5113
2.5072
2.5080
2.5040
2.5137
2.5064
2.5161
2.5129
2.5105
2.5088
2.5072
2.5080
2.5129
2.5161
2.5177
2.5121
2.5145
2.5072
2.4992
2.5032
2.5064
2.5105
2.5121
2.5137
2.5048
2.5105
2.5072
2.5105
2.5145
2.5145
2.5233
2.5185
2.5153
2.5137
2.5177
2.5072
2.5080
2.5137
2.5153
2.5169
2.5113
2.5137
2.5088
2.5088
2.5080
2.5113
2.5161
2.5153
2.5145
2.5088
2.5113
2.5072
2.5064
2.5105
2.5129
2.5161
2.5161
2.5153
2.5088
2.4992
2.5016
2.5048
2.5105
2.5121
2.5056
2.5056
2.5096
2.5040
2.5105
2.5048
2.5145
2.5145
2.5129
2.5161
2.5177
2.5209
2.5064
2.5080
2.5056
2.5153
2.5137
2.5387
2.5153
2.5088
2.5056
2.5072
2.5056
2.5096
2.5121
2.5113
2.5145
2.5137
2.5088
2.5024
2.5008
2.5080
2.5113
2.5121
2.5113
2.5113
2.5072
2.5040
2.5096
2.5129
2.5177
2.5217
2.5201
2.5177
2.5161
2.5040
2.5096
2.5145
2.5185
2.5193
2.5201
2.5209
2.5177
2.5080
2.5032
2.5064
2.5129
2.5129
2.5193
2.5242
2.5209
2.5113
2.5064
2.5088
2.5096
2.5113
2.5153
2.5161
2.5145
2.5161
2.5105
2.5048
2.5137
2.5153
2.5330
2.5217
2.5153
2.5177
2.5121
2.5105
2.5137
2.5193
2.5209
2.5233
2.5137
2.5242
2.5225
2.5169
2.5145
2.5137
2.5225
2.5274
2.5306
2.5266
2.5258
2.5201
2.5153
2.5193
2.5209
2.5233
2.5250
2.5242
2.5185
2.5145
2.5129
2.5145
2.5185
2.5225
2.5233
2.5233
2.5233
2.5177
2.5217
2.5201
2.5201
2.5225
2.5121
2.5242
2.5193
2.5193
2.5096
2.5137
2.5129
2.5064
2.5177
2.5201
2.5153
2.5137
2.5080
2.5008
2.5080
2.5105
2.5153
2.5105
2.5121
2.5113
2.5048
2.5088
2.5096
2.5113
2.5177
2.5193
2.5193
2.5161
2.5137
2.5113
2.5105
2.5129
2.5193
2.5169
2.5169
2.5185
2.5145
2.5096
2.5096
2.5088
2.5121
2.5153
2.5161
2.5169
2.5137
2.5113
2.5080
2.5113
2.5121
2.5153
2.5217
2.5201
2.5169
2.5129
2.5072
2.5088
2.5137
2.5145
2.5193
2.5201
2.5169
2.5113
2.5048
2.5072
2.5064
2.5096
2.5105
2.5161
2.5169
2.5185
2.5177
2.5088
2.5088
2.5072
2.5185
2.5201
2.5233
2.5201
2.5209
2.5177
2.5153
2.5121
2.5201
2.5250
2.5330
2.5322
2.5290
2.5242
2.5258
2.5322
2.5362
2.5435
2.5499
2.5515
2.5507
2.5483
2.5427
2.5387
2.5411
2.5475
2.5515
2.5507
2.5411
2.5314
2.5233
2.5129
2.5105
2.5129
2.5161
2.5169
2.5129
2.5080
2.5032
2.5024
2.5040
2.4943
2.5088
2.5072
2.5177
2.5024
2.5000
2.4935
2.4943
2.4919
2.4935
2.4960
2.4960
2.4960
2.4935
2.4911
2.4943
2.5016
2.5105
2.5121
2.5177
2.5177
2.5153
2.5088
2.5064
2.5105
2.5129
2.5225
2.5274
2.5217
2.5209
2.5169
2.5048
2.5153
2.5113
2.5217
2.5193
2.5185
2.5193
2.5161
2.5129
2.5105
2.5153
2.5153
2.5217
2.5225
2.5193
2.5177
2.5137
2.5113
2.5113
2.5169
2.5250
2.5298
2.5282
2.5209
2.5153
2.5080
2.5088
2.5088
2.5113
2.5177
2.5185
2.5169
2.5145
2.5153
2.5129
2.5121
2.5185
2.5225
2.5266
2.5282
2.5250
2.5161
2.5113
2.5177
2.5201
2.5274
2.5258
2.5282
2.5225
2.5169
2.5161
2.5137
2.5137
2.5185
2.5217
2.5233
2.5250
2.5209
2.5177
2.5121
2.5121
2.5177
2.5225
2.5250
2.5225
2.5250
2.5177
2.5137
2.5145
2.5193
2.5258
2.5290
2.5274
2.5266
2.5209
2.5161
2.5105
2.5153
2.5193
2.5298
2.5298
2.5274
2.5225
2.5161
2.5145
2.5129
2.5185
2.5258
2.5282
2.5282
2.5209
2.5161
2.5145
2.5161
2.5177
2.5225
2.5282
2.5290
2.5298
2.5201
2.5129
2.5153
2.5225
2.5282
2.5298
2.5338
2.5274
2.5242
2.5209
2.5193
2.5242
2.5201
2.5266
2.5282
2.5266
2.5258
2.5137
2.5169
2.5113
2.5185
2.5242
2.5258
2.5290
2.5306
2.5225
2.5193
2.5193
2.5201
2.5274
2.5314
2.5282
2.5306
2.5266
2.5290
2.5274
2.5217
2.5242
2.5274
2.5266
2.5290
2.5250
2.5250
2.5193
2.5201
2.5266
2.5290
2.5298
2.5346
2.5338
2.5330
2.5250
2.5209
2.5290
2.5362
2.5314
2.5314
2.5338
2.5298
2.5290
2.5201
2.5209
2.5242
2.5282
2.5314
2.5354
2.5314
2.5266
2.5209
2.5242
2.5435
2.5354
2.5378
2.5411
2.5395
2.5378
2.5338
2.5338
2.5314
2.5346
2.5411
2.5411
2.5395
2.5370
2.5338
2.5306
2.5298
2.5330
2.5427
2.5427
2.5435
2.5370
2.5370
2.5266
2.5250
2.5338
2.5427
2.5443
2.5459
2.5459
2.5395
2.5330
2.5258
2.5290
2.5378
2.5451
2.5451
2.5515
2.5387
2.5362
2.5378
2.5306
2.5362
2.5419
2.5475
2.5411
2.5403
2.5346
2.5338
2.5354
2.5419
2.5435
2.5467
2.5451
2.5443
2.5378
2.5282
2.5290
2.5378
2.5387
2.5419
2.5419
2.5395
2.5362
2.5322
2.5290
2.5266
2.5314
2.5346
2.5427
2.5370
2.5387
2.5330
2.5266
2.5242
2.5242
2.5330
2.5290
2.5354
2.5282
2.5250
2.5217
2.5161
2.5201
2.5225
2.5274
2.5274
2.5250
2.5169
2.5105
2.5056
2.5096
2.5129
2.5217
2.5225
2.5242
2.5282
2.5153
2.5072
2.5048
2.5153
2.5145
2.5209
2.5169
2.5072
2.5080
2.5032
2.5008
2.5016
2.5096
2.5137
2.5137
2.5088
2.5096
2.5056
2.5040
2.5024
2.5080
2.5080
2.5121
2.5121
2.5072
2.5000
2.4984
2.4976
2.5064
2.5080
2.5129
2.5129
2.5217
2.5056
2.5096
2.5016
2.5032
2.5096
2.5121
2.5137
2.5129
2.5105
2.5056
2.5024
2.5032
2.5048
2.5072
2.5080
2.5072
2.5000
2.4943
2.4935
2.4943
2.5008
2.5056
2.5080
2.5096
2.5129
2.5040
2.4887
2.4968
2.5008
2.5064
2.5096
2.5169
2.5105
2.5153
2.5064
2.5016
2.4992
2.5056
2.5032
2.5129
2.5105
2.5088
2.5048
2.5016
2.4976
2.5040
2.5048
2.5072
2.5048
2.5088
2.5072
2.5064
2.5032
2.5040
2.5064
2.5113
2.5121
2.5129
2.5088
2.5024
2.5008
2.5000
2.5080
2.5105
2.5080
2.5161
2.5072
2.5072
2.5040
2.5000
2.5032
2.5080
2.5121
2.5040
2.5096
2.5048
2.4976
2.4976
2.4976
2.5056
2.5129
2.5096
2.5121
2.5064
2.5032
2.4984
2.5000
2.5024
2.5113
2.5169
2.5105
2.5088
2.5056
2.4943
2.5000
2.5032
2.5048
2.5105
2.5096
2.5080
2.5056
2.5016
2.5008
2.5072
2.5145
2.5201
2.5201
2.5161
2.5105
2.5088
2.5056
2.5024
2.5024
2.5105
2.5080
2.5088
2.5105
2.5016
2.5032
2.5000
2.5032
2.5072
2.5088
2.5121
2.5080
2.5056
2.5000
2.5000
2.5040
2.5048
2.5137
2.5129
2.5129
2.5185
2.5121
2.5088
2.5032
2.5121
2.5121
2.5185
2.5177
2.5137
2.5088
2.5048
2.5096
2.5080
2.5096
2.5137
2.5137
2.5153
2.5121
2.5080
2.5008
2.5032
2.5113
2.5129
2.5153
2.5137
2.5048
2.5088
2.5008
2.5048
2.5064
2.5121
2.5145
2.5113
2.5096
2.5056
2.4984
2.4968
2.5016
2.5072
2.5113
2.5137
2.5121
2.5096
2.5096
2.5008
2.5040
2.5088
2.5145
2.5161
2.5153
2.5056
2.5096
2.5056
2.5064
2.5080
2.5040
2.5121
2.5177
2.5113
2.5064
2.5008
2.5008
2.5056
2.5072
2.5080
2.5105
2.5096
2.5056
2.5080
2.5016
2.5000
2.5064
2.5080
2.5121
2.5129
2.5113
2.5032
2.5072
2.4992
2.5072
2.5096
2.5121
2.5129
2.5121
2.5048
2.5016
2.5040
2.5056
2.5096
2.5145
2.5129
2.5161
2.5080
2.5024
2.4943
2.4984
2.5016
2.5064
2.5072
2.5088
2.5056
2.5024
2.5072
2.4992
2.4960
2.5056
2.5105
2.5121
2.5121
2.5064
2.5048
2.5056
2.5056
2.5121
2.5161
2.5161
2.5121
2.5137
2.5040
2.5008
2.5080
2.5153
2.5153
2.5209
2.5153
2.5161
2.5088
2.5040
2.5032
2.5072
2.5137
2.5169
2.5217
2.5145
2.5129
2.5048
2.5016
2.5024
2.5096
2.5137
2.5145
2.5137
2.5169
2.5040
2.4992
2.5024
2.5105
2.5137
2.5217
2.5145
2.5121
2.5064
2.5016
2.5040
2.5088
2.5185
2.5145
2.5161
2.5137
2.5096
2.5016
2.5008
2.5008
2.5048
2.5008
2.5080
2.5105
2.5088
2.5048
2.5032
2.5048
2.5088
2.5113
2.5169
2.5121
2.5056
2.5080
2.5072
2.5032
2.5072
2.5129
2.5153
2.5145
2.5080
2.5024
2.4984
2.4992
2.4976
2.5064
2.5096
2.5113
2.5096
2.5040
2.5024
2.4960
2.4992
2.5008
2.5080
2.5105
2.5153
2.5072
2.5056
2.5000
2.5040
2.5048
2.5161
2.5201
2.5201
2.5193
2.5137
2.5129
2.5080
2.5121
2.5169
2.5161
2.5177
2.5177
2.5113
2.5056
2.5008
2.5048
2.5048
2.5129
2.5137
2.5153
2.5121
2.5121
2.5056
2.5032
2.5105
2.5129
2.5177
2.5153
2.5096
2.5080
2.5072
2.5032
2.5088
2.5169
2.5161
2.5193
2.5169
2.5088
2.5080
2.5032
2.5121
2.5105
2.5153
2.5185
2.5121
2.5145
2.5064
2.5032
2.5024
2.5048
2.5129
2.5137
2.5137
2.5072
2.5048
2.5032
2.5016
2.5032
2.5096
2.5137
2.5217
2.5201
2.5113
2.5056
2.5032
2.5064
2.5137
2.5185
2.5201
2.5185
2.5121
2.5129
2.5024
2.5145
2.5064
2.5161
2.5137
2.5161
2.5137
2.5088
2.5064
2.5048
2.5080
2.5056
2.5121
2.5137
2.5161
2.5137
2.5096
2.5056
2.5064
2.5129
2.5121
2.5209
2.5137
2.5145
2.5113
2.4992
2.5048
2.5105
2.5113
2.5177
2.5113
2.5298
2.5008
2.5113
2.5072
2.5088
2.5177
2.5201
2.5209
2.5201
2.5137
2.5096
2.5217
2.5137
2.5177
2.5177
2.5185
2.5169
2.5161
2.5072
2.5105
2.5072
2.5096
2.5153
2.5193
2.5185
2.5169
2.5161
2.5072
2.5129
2.5121
2.5137
2.5217
2.5209
2.5177
2.5242
2.5121
2.5137
2.5145
2.5201
2.5201
2.5209
2.5177
2.5113
2.5137
2.5080
2.5080
2.5096
2.5137
2.5193
2.5201
2.5185
2.5145
2.5129
2.5088
2.5161
2.5193
2.5282
2.5242
2.5266
2.5201
2.5177
2.5088
2.5040
2.5080
2.5137
2.5185
2.5193
2.5169
2.5137
2.5056
2.5008
2.5048
2.5113
2.5080
2.5105
2.5258
2.5056
2.5016
2.4992
2.5121
2.5169
2.5201
2.5145
2.5161
2.5201
2.5080
2.4935
2.5153
2.5096
2.5177
2.5169
2.5161
2.5121
2.5072
2.5024
2.4992
2.5040
2.5064
2.5145
2.5153
2.5080
2.5024
2.5016
2.4976
2.5000
2.5056
2.5088
2.5193
2.5137
2.5096
2.5016
2.5032
2.5064
2.5056
2.5064
2.5129
2.5121
2.5137
2.5096
2.5096
2.5072
2.5016
2.5105
2.5145
2.5137
2.5105
2.5072
2.5064
2.5016
2.5048
2.5113
2.5088
2.5225
2.5185
2.5145
2.5024
2.5048
2.5080
2.5113
2.5161
2.5233
2.5225
2.5225
2.5225
2.5193
2.5137
2.5185
2.5338
2.5459
2.5419
2.5419
2.5411
2.5274
2.5378
2.5378
2.5427
2.5419
2.5443
2.5443
2.5411
2.5362
2.5217
2.5177
2.5177
2.5153
2.5161
2.5096
2.5016
2.4935
2.4935
2.4935
2.4960
2.5024
2.4960
2.5024
2.5024
2.4968
2.4887
2.4879
2.4839
2.4871
2.4895
2.4935
2.4911
2.4863
2.4855
2.4815
2.4815
2.4911
2.5048
2.5064
2.5209
2.5064
2.5024
2.5016
2.5008
2.5032
2.5113
2.5161
2.5185
2.5233
2.5129
2.5129
2.5072
2.5113
2.5161
2.5169
2.5177
2.5185
2.5096
2.5129
2.5088
2.5064
2.5105
2.5177
2.5177
2.5242
2.5153
2.5121
2.5129
2.5137
2.5129
2.5153
2.5217
2.5217
2.5217
2.5177
2.5096
2.5088
2.5080
2.5096
2.5177
2.5169
2.5193
2.5169
2.5105
2.5040
2.5056
2.5129
2.5193
2.5250
2.5225
2.5201
2.5137
2.5080
2.5080
2.5129
2.5169
2.5242
2.5242
2.5185
2.5040
2.5096
2.5064
2.5088
2.5185
2.5153
2.5145
2.5137
2.5113
2.5129
2.5096
2.5088
2.5161
2.5225
2.5354
2.5217
2.5258
2.5185
2.5121
2.5137
2.5185
2.5266
2.5274
2.5322
2.5266
2.5209
2.5185
2.5153
2.5169
2.5193
2.5209
2.5250
2.5266
2.5193
2.5145
2.5177
2.5145
2.5193
2.5242
2.5250
2.5225
2.5201
2.5185
2.5105
2.5056
2.5145
2.5161
2.5217
2.5217
2.5201
2.5185
2.5145
2.5137
2.5121
2.5177
2.5225
2.5282
2.5258
2.5298
2.5201
2.5161
2.5169
2.5233
2.5290
2.5314
2.5322
2.5274
2.5274
2.5258
2.5129
2.5209
2.5137
2.5370
2.5322
2.5322
2.5250
2.5217
2.5209
2.5201
2.5242
2.5266
2.5290
2.5298
2.5282
2.5217
2.5193
2.5177
2.5233
2.5266
2.5298
2.5322
2.5250
2.5201
2.5193
2.5201
2.5201
2.5298
2.5362
2.5338
2.5370
2.5290
2.5250
2.5201
2.5225
2.5258
2.5306
2.5354
2.5306
2.5298
2.5258
2.5201
2.5258
2.5242
2.5322
2.5362
2.5435
2.5322
2.5306
2.5306
2.5306
2.5274
2.5314
2.5387
2.5370
2.5387
2.5362
2.5290
2.5242
2.5250
2.5330
2.5378
2.5427
2.5378
2.5378
2.5306
2.5250
2.5298
2.5378
2.5362
2.5411
2.5443
2.5403
2.5395
2.5306
2.5306
2.5354
2.5403
2.5427
2.5419
2.5459
2.5435
2.5387
2.5378
2.5395
2.5451
2.5483
2.5499
2.5451
2.5475
2.5459
2.5443
2.5403
2.5435
2.5467
2.5523
2.5475
2.5435
2.5435
2.5395
2.5378
2.5419
2.5483
2.5523
2.5515
2.5451
2.5435
2.5411
2.5370
2.5354
2.5387
2.5435
2.5459
2.5467
2.5419
2.5403
2.5338
2.5330
2.5387
2.5346
2.5346
2.5354
2.5282
2.5290
2.5201
2.5225
2.5258
2.5314
2.5370
2.5338
2.5330
2.5314
2.5250
2.5209
2.5169
2.5201
2.5266
2.5330
2.5282
2.5266
2.5201
2.5169
2.5121
2.5137
2.5225
2.5217
2.5274
2.5225
2.5153
2.5145
2.5153
2.5121
2.5153
2.5185
2.5137
2.5161
2.5137
2.5032
2.5016
2.5016
2.5056
2.5105
2.5113
2.5096
2.5040
2.4968
2.4927
2.4968
2.5000
2.5016
2.5113
2.5032
2.5048
2.5016
2.4992
2.5000
2.4992
2.5000
2.4976
2.5072
2.5064
2.5032
2.5008
2.4968
2.4992
2.5016
2.5040
2.5080
2.5105
2.5032
2.4984
2.4960
2.4903
2.4984
2.5016
2.5056
2.5048
2.5040
2.4968
2.5056
2.4887
2.5000
2.5008
2.5016
2.5137
2.5145
2.5032
2.5008
2.5032
2.4927
2.4992
2.5169
2.5072
2.5080
2.5048
2.5032
2.4976
2.5008
2.5056
2.5056
2.5105
2.5088
2.5080
2.5024
2.4911
2.4943
2.4984
2.4960
2.5080
2.5088
2.5105
2.5032
2.5016
2.5056
2.5008
2.5008
2.5064
2.5088
2.4992
2.5056
2.4976
2.4968
2.4976
2.5032
2.5072
2.5072
2.5105
2.5088
2.5008
2.4992
2.4984
2.4984
2.5024
2.5088
2.5088
2.5096
2.5056
2.5008
2.4984
2.4976
2.5040
2.5096
2.5113
2.5088
2.5080
2.5080
2.5032
2.4976
2.5008
2.5064
2.5145
2.5080
2.5064
2.5048
2.5008
2.4992
2.5024
2.5088
2.5096
2.5137
2.5113
2.5064
2.5040
2.4927
2.4871
2.5000
2.5080
2.5056
2.5040
2.5032
2.4951
2.4927
2.4960
2.5032
2.5080
2.5121
2.5121
2.5080
2.5024
2.5000
2.5024
2.5072
2.5064
2.5056
2.5145
2.5072
2.5129
2.5105
2.5056
2.4992
2.5056
2.5088
2.5113
2.5121
2.5096
2.5072
2.4976
2.4992
2.4992
2.5072
2.5048
2.5032
2.5048
2.5040
2.5024
2.4984
2.5040
2.5088
2.5113
2.5137
2.5080
2.5048
2.5016
2.4968
2.4984
2.5024
2.5056
2.5088
2.5088
2.5064
2.5056
2.4903
2.5008
2.5064
2.5088
2.5145
2.5153
2.5088
2.5080
2.5048
2.5048
2.5072
2.5080
2.5129
2.5153
2.5193
2.5080
2.5137
2.4992
2.5121
2.5008
2.5088
2.5121
2.5088
2.5080
2.5040
2.5016
2.5016
2.5024
2.5080
2.5145
2.5145
2.5105
2.5072
2.5032
2.4992
2.5056
2.5072
2.5048
2.5096
2.5080
2.5064
2.5016
2.4960
2.5024
2.5080
2.5088
2.5129
2.5121
2.5105
2.5056
2.5008
2.5000
2.5008
2.5096
2.5088
2.5096
2.5056
2.5080
2.5008
2.4992
2.5056
2.5080
2.5080
2.5137
2.5121
2.5072
2.5056
2.4976
2.5008
2.5024
2.5072
2.5072
2.5145
2.5088
2.5088
2.4984
2.4976
2.5000
2.5072
2.5193
2.5129
2.5080
2.5072
2.5024
2.5024
2.5016
2.4968
2.5080
2.5113
2.5096
2.5064
2.5016
2.5048
2.5016
2.5072
2.5048
2.5113
2.5113
2.5080
2.5008
2.5008
2.4992
2.5008
2.5056
2.5096
2.5113
2.5088
2.5056
2.5024
2.4984
2.5024
2.5032
2.5121
2.5113
2.5105
2.5096
2.5161
2.5008
2.4992
2.5088
2.5096
2.5105
2.5153
2.5080
2.5056
2.4968
2.5000
2.5016
2.5048
2.5096
2.5113
2.5096
2.5105
2.5040
2.5048
2.5008
2.5064
2.5088
2.5105
2.5105
2.5145
2.5040
2.5024
2.5024
2.5056
2.5105
2.5121
2.5137
2.5137
2.5129
2.5040
2.5032
2.5056
2.5080
2.5145
2.5129
2.5137
2.5072
2.5064
2.5016
2.5016
2.5032
2.5129
2.5129
2.5105
2.5096
2.5032
2.4976
2.4984
2.5008
2.5129
2.5129
2.5153
2.5129
2.5072
2.5008
2.4992
2.5024
2.5169
2.5056
2.5137
2.5080
2.5056
2.5008
2.4951
2.4976
2.5040
2.5121
2.5121
2.5137
2.5096
2.5096
2.5088
2.5016
2.4992
2.5088
2.5113
2.5105
2.5121
2.4984
2.5040
2.5016
2.5040
2.5080
2.5088
2.5129
2.5129
2.5096
2.5024
2.5008
2.5048
2.5080
2.5113
2.5129
2.5121
2.5096
2.5024
2.4984
2.4984
2.5040
2.5137
2.5161
2.5048
2.5121
2.5072
2.5064
2.5080
2.5016
2.5056
2.5161
2.5185
2.5169
2.5161
2.5088
2.5024
2.5040
2.5072
2.5129
2.5177
2.5137
2.5129
2.5064
2.4943
2.5145
2.5040
2.5177
2.5209
2.5225
2.5266
2.5217
2.5129
2.5121
2.5121
2.5129
2.5177
2.5193
2.5153
2.5145
2.5056
2.5080
2.5096
2.5145
2.5258
2.5282
2.5242
2.5185
2.5153
2.5145
2.5121
2.5161
2.5193
2.5217
2.5217
2.5169
2.5080
2.5048
2.5016
2.5072
2.5153
2.5209
2.5233
2.5209
2.5145
2.5145
2.5088
2.5225
2.5145
2.5161
2.5169
2.5137
2.5072
2.5096
2.5032
2.5008
2.5056
2.5113
2.5113
2.5145
2.5105
2.5080
2.5048
2.5000
2.5048
2.5137
2.5137
2.5137
2.5113
2.5056
2.5040
2.4992
2.4984
2.5016
2.5080
2.5193
2.5121
2.5056
2.5032
2.5048
2.4992
2.5016
2.5072
2.5113
2.5129
2.5137
2.5064
2.5024
2.4992
2.5016
2.5129
2.5145
2.5137
2.5129
2.5064
2.5016
2.5048
2.5032
2.5096
2.5129
2.5121
2.5153
2.5105
2.5056
2.5056
2.4960
2.5016
2.5016
2.5121
2.5153
2.5096
2.5064
2.5032
2.4960
2.4992
2.5056
2.5153
2.5064
2.5121
2.5056
2.4951
2.4984
2.5024
2.5064
2.5080
2.5064
2.5088
2.5096
2.5056
2.5032
2.4992
2.5072
2.5096
2.5201
2.5169
2.5169
2.5096
2.5080
2.5024
2.5072
2.5129
2.5209
2.5330
2.5330
2.5274
2.5298
2.5282
2.5306
2.5322
2.5362
2.5459
2.5523
2.5459
2.5435
2.5395
2.5338
2.5330
2.5451
2.5459
2.5370
2.5330
2.5314
2.5185
2.4960
2.5040
2.5040
2.5040
2.5032
2.5024
2.5016
2.4968
2.4911
2.4927
2.4935
2.4935
2.5072
2.4968
2.4903
2.4895
2.4750
2.4766
2.4798
2.4831
2.4855
2.4863
2.4855
2.4823
2.4815
2.4863
2.4863
2.4863
2.4951
2.5072
2.4992
2.5072
2.4968
2.4919
2.5008
2.5000
2.5088
2.5080
2.5137
2.5121
2.5088
2.5056
2.4943
2.5040
2.5080
2.5153
2.5137
2.5153
2.5121
2.5032
2.5016
2.5024
2.5096
2.5193
2.5161
2.5080
2.5056
2.5016
2.4984
2.5008
2.5056
2.5137
2.5201
2.5161
2.5137
2.5096
2.5032
2.5024
2.5040
2.5088
2.5209
2.5113
2.5105
2.5129
2.5008
2.5072
2.5080
2.5113
2.5137
2.5153
2.5088
2.5096
2.5072
2.5056
2.5024
2.5040
2.5105
2.5096
2.5169
2.5161
2.5056
2.5072
2.5032
2.5080
2.5137
2.5161
2.5185
2.5161
2.5145
2.5121
2.5040
2.5072
2.5072
2.5217
2.5177
2.5225
2.5145
2.5105
2.5008
2.5040
2.5080
2.5137
2.5169
2.5193
2.5137
2.5137
2.5056
2.5056
2.5096
2.5169
2.5233
2.5274
2.5209
2.5153
2.5129
2.5080
2.5072
2.5064
2.5169
2.5113
2.5225
2.5185
2.5201
2.5072
2.5056
2.5153
2.5201
2.5258
2.5201
2.5193
2.5137
2.5088
2.5064
2.5072
2.5137
2.5177
2.5193
2.5233
2.5201
2.5153
2.5121
2.5153
2.5145
2.5225
2.5209
2.5225
2.5242
2.5185
2.5129
2.5032
2.5121
2.5193
2.5225
2.5201
2.5330
2.5121
2.5056
2.5040
2.5121
2.5153
2.5242
2.5258
2.5266
2.5169
2.5137
2.5153
2.5153
2.5193
2.5274
2.5274
2.5274
2.5242
2.5193
2.5201
2.5177
2.5193
2.5217
2.5290
2.5282
2.5258
2.5193
2.5145
2.5129
2.5137
2.5209
2.5250
2.5282
2.5266
2.5290
2.5177
2.5217
2.5225
2.5258
2.5266
2.5306
2.5338
2.5306
2.5250
2.5153
2.5209
2.5282
2.5274
2.5338
2.5322
2.5346
2.5290
2.5250
2.5217
2.5298
2.5322
2.5346
2.5387
2.5387
2.5338
2.5233
2.5217
2.5233
2.5282
2.5290
2.5354
2.5362
2.5346
2.5322
2.5298
2.5298
2.5419
2.5362
2.5419
2.5427
2.5298
2.5378
2.5314
2.5354
2.5387
2.5395
2.5507
2.5419
2.5435
2.5403
2.5354
2.5314
2.5362
2.5403
2.5443
2.5459
2.5435
2.5346
2.5362
2.5298
2.5314
2.5387
2.5411
2.5427
2.5403
2.5282
2.5362
2.5330
2.5201
2.5290
2.5354
2.5378
2.5346
2.5314
2.5314
2.5274
2.5209
2.5209
2.5274
2.5290
2.5298
2.5298
2.5282
2.5193
2.5201
2.5217
2.5193
2.5225
2.5266
2.5217
2.5250
2.5193
2.5137
2.5137
2.5193
2.5225
2.5225
2.5169
2.5185
2.5137
2.5088
2.5056
2.5048
2.5113
2.5113
2.5129
2.5105
2.5064
2.5048
2.4960
2.4992
2.5024
2.5048
2.5080
2.5072
2.5056
2.5000
2.5008
2.5016
2.5024
2.5056
2.5177
2.5080
2.5177
2.5024
2.4960
2.4895
2.4968
2.5024
2.5064
2.5113
2.5088
2.5048
2.4992
2.4960
2.4943
2.4984
2.5105
2.5056
2.5080
2.5145
2.5032
2.5008
2.4951
2.4976
2.5032
2.5064
2.5072
2.5064
2.5008
2.4951
2.4895
2.4976
2.5105
2.5008
2.5048
2.5048
2.5024
2.4951
2.4879
2.4927
2.4984
2.5000
2.5040
2.5080
2.5072
2.4992
2.4976
2.4935
2.5016
2.5064
2.5096
2.5080
2.5064
2.5024
2.4992
2.4960
2.4992
2.5000
2.5008
2.5040
2.5016
2.5016
2.4951
2.4951
2.4919
2.4968
2.5032
2.5000
2.5096
2.5072
2.5008
2.4984
2.5000
2.4927
2.4992
2.5024
2.5024
2.5000
2.4960
2.4968
2.4903
2.4887
2.4951
2.5040
2.5048
2.5056
2.5056
2.5000
2.4927
2.4992
2.4919
2.5024
2.5113
2.5113
2.5137
2.5096
2.5040
2.5008
2.5080
2.5016
2.5072
2.5113
2.5105
2.5072
2.5032
2.5008
2.5000
2.5000
2.5080
2.5072
2.5072
2.5048
2.4992
2.4919
2.4911
2.4984
2.5040
2.5129
2.5024
2.5088
2.5040
2.4960
2.4943
2.5048
2.5008
2.5056
2.5088
2.5072
2.5064
2.4976
2.4960
2.4951
2.5056
2.5064
2.5096
2.5072
2.5032
2.5008
2.4992
2.4951
2.5032
2.5056
2.5064
2.5072
2.5048
2.5016
2.4960
2.4976
2.5032
2.5121
2.5064
2.5105
2.5105
2.5064
2.5056
2.4984
2.4951
2.5072
2.5040
2.5096
2.5088
2.5040
2.5000
2.5016
2.5000
2.5048
2.5008
2.5080
2.5072
2.5088
2.5129
2.5040
2.5032
2.5088
2.5056
2.5056
2.5088
2.5145
2.5096
2.5064
2.5048
2.5024
2.4951
2.5080
2.5113
2.5096
2.5008
2.5000
2.4992
2.4976
2.5040
2.5064
2.5105
2.5105
2.5072
2.5064
2.5024
2.4976
2.5024
2.5032
2.5040
2.5072
2.5048
2.5000
2.4976
2.5032
2.4984
2.5137
2.5064
2.5161
2.5096
2.5072
2.5048
2.5000
2.5064
2.5056
2.5056
2.5137
2.5096
2.5032
2.5016
2.5048
2.5040
2.5032
2.5064
2.5209
2.5096
2.5080
2.5048
2.5024
2.4976
2.5008
2.5080
2.5105
2.5064
2.5096
2.5121
2.5080
2.5008
2.4968
2.4968
2.5016
2.5056
2.5105
2.5064
2.5040
2.4992
2.5016
2.5000
2.5032
2.5056
2.5072
2.5080
2.5080
2.5024
2.5016
2.5064
2.5072
2.5032
2.5088
2.5096
2.5072
2.4984
2.5024
2.4984
2.5016
2.5217
2.5137
2.5121
2.5080
2.5048
2.5048
2.5032
2.5080
2.5024
2.5056
2.5113
2.5096
2.4960
2.5000
2.4976
2.4976
2.5072
2.5113
2.5105
2.5129
2.5088
2.5040
2.5008
2.5008
2.5040
2.5096
2.5113
2.5096
2.5121
2.5080
2.5024
2.4984
2.4984
2.5064
2.5056
2.5096
2.5105
2.5032
2.4992
2.5024
2.5016
2.5064
2.5032
2.5129
2.5129
2.5088
2.5064
2.5056
2.5056
2.5064
2.5105
2.5121
2.5129
2.5137
2.5145
2.5008
2.5024
2.5024
2.5096
2.5064
2.5121
2.5113
2.5064
2.5008
2.4951
2.5024
2.5048
2.5080
2.5072
2.5096
2.5121
2.5024
2.5048
2.4984
2.5040
2.5088
2.5137
2.5121
2.5145
2.5105
2.5032
2.4992
2.5000
2.5080
2.5072
2.5153
2.5113
2.5096
2.5048
2.5056
2.5032
2.5096
2.5072
2.5129
2.5153
2.5105
2.5096
2.5064
2.5016
2.5088
2.5137
2.5137
2.5137
2.5185
2.5048
2.5016
2.4968
2.5040
2.5096
2.5145
2.5145
2.5161
2.5137
2.5105
2.5113
2.5088
2.5137
2.5161
2.5185
2.5185
2.5153
2.5105
2.5048
2.5040
2.5056
2.5105
2.5137
2.5137
2.5161
2.5096
2.5048
2.5032
2.5016
2.5064
2.5233
2.5153
2.5153
2.5072
2.5056
2.5048
2.5072
2.5105
2.5161
2.5153
2.5217
2.5233
2.5113
2.5088
2.5137
2.5145
2.5169
2.5129
2.5266
2.5217
2.5113
2.5121
2.5105
2.5129
2.5177
2.5153
2.5209
2.5225
2.5185
2.5113
2.5121
2.5137
2.5113
2.5161
2.5193
2.5177
2.5161
2.5153
2.5056
2.5056
2.5088
2.5121
2.5129
2.5129
2.5145
2.5121
2.5016
2.5032
2.5000
2.5088
2.5105
2.5145
2.5161
2.5105
2.5056
2.5121
2.5032
2.5048
2.5048
2.5096
2.5072
2.5072
2.5096
2.5016
2.4992
2.5016
2.5105
2.5137
2.5129
2.5137
2.5113
2.5072
2.5032
2.5016
2.5080
2.5105
2.5145
2.5137
2.5113
2.5080
2.5048
2.5064
2.5080
2.5161
2.5145
2.5129
2.5153
2.5080
2.5024
2.5016
2.5032
2.5080
2.5145
2.5145
2.5161
2.5129
2.5032
2.4976
2.5048
2.5088
2.5153
2.5153
2.5137
2.5064
2.5016
2.4984
2.5000
2.5056
2.5048
2.5040
2.5096
2.5096
2.5056
2.5000
2.4992
2.5048
2.5161
2.5217
2.5201
2.5153
2.5177
2.5137
2.5145
2.5201
2.5225
2.5258
2.5290
2.5282
2.5298
2.5298
2.5314
2.5282
2.5362
2.5443
2.5523
2.5459
2.5411
2.5411
2.5395
2.5322
2.5370
2.5435
2.5451
2.5435
2.5387
2.5298
2.5161
2.5113
2.4960
2.5056
2.5072
2.5080
2.5056
2.5064
2.4984
2.4911
2.4927
2.4976
2.5016
2.5016
2.5016
2.5000
2.4935
2.4871
2.4806
2.4798
2.4855
2.4927
2.4919
2.4895
2.4919
2.4887
2.4911
2.4911
2.5000
2.5040
2.5088
2.5056
2.5056
2.5016
2.4976
2.5040
2.5048
2.5137
2.5169
2.5177
2.5233
2.5298
2.5177
2.5088
2.5096
2.5193
2.5177
2.5209
2.5185
2.5129
2.5096
2.5080
2.5121
2.5137
2.5153
2.5145
2.5177
2.5161
2.5072
2.5056
2.5088
2.5056
2.5137
2.5177
2.5201
2.5233
2.5145
2.5105
2.5048
2.5129
2.5137
2.5129
2.5145
2.5177
2.5185
2.5137
2.5064
2.5121
2.5153
2.5177
2.5193
2.5193
2.5177
2.5064
2.5105
2.5121
2.5161
2.5185
2.5185
2.5201
2.5193
2.5145
2.5129
2.5137
2.5121
2.5161
2.5225
2.5242
2.5242
2.5233
2.5080
2.5072
2.5161
2.5258
2.5225
2.5233
2.5233
2.5233
2.5185
2.5121
2.5129
2.5185
2.5177
2.5225
2.5217
2.5225
2.5169
2.5137
2.5145
2.5161
2.5225
2.5233
2.5266
2.5242
2.5209
2.5129
2.5169
2.5161
2.5185
2.5209
2.5266
2.5225
2.5129
2.5177
2.5153
2.5113
2.5193
2.5201
2.5242
2.5266
2.5266
2.5233
2.5129
2.5201
2.5169
2.5225
2.5209
2.5177
2.5250
2.5225
2.5177
2.5153
2.5145
2.5193
2.5209
2.5250
2.5258
2.5233
2.5177
2.5161
2.5113
2.5201
2.5258
2.5322
2.5330
2.5290
2.5185
2.5209
2.5185
2.5217
2.5298
2.5314
2.5330
2.5258
2.5362
2.5225
2.5185
2.5185
2.5177
2.5274
2.5266
2.5314
2.5282
2.5225
2.5177
2.5145
2.5193
2.5282
2.5201
2.5258
2.5258
2.5274
2.5201
2.5233
2.5217
2.5242
2.5282
2.5314
2.5306
2.5233
2.5233
2.5201
2.5209
2.5298
2.5330
2.5338
2.5193
2.5266
2.5266
2.5169
2.5217
2.5242
2.5298
2.5362
2.5354
2.5330
2.5282
2.5266
2.5266
2.5314
2.5346
2.5387
2.5451
2.5403
2.5370
2.5362
2.5290
2.5250
2.5306
2.5346
2.5427
2.5395
2.5370
2.5322
2.5282
2.5282
2.5346
2.5419
2.5435
2.5411
2.5411
2.5411
2.5378
2.5338
2.5322
2.5387
2.5435
2.5427
2.5419
2.5387
2.5338
2.5274
2.5290
2.5330
2.5370
2.5443
2.5443
2.5362
2.5298
2.5217
2.5250
2.5298
2.5362
2.5346
2.5378
2.5306
2.5354
2.5274
2.5217
2.5282
2.5282
2.5346
2.5346
2.5354
2.5330
2.5225
2.5362
2.5250
2.5217
2.5258
2.5290
2.5266
2.5250
2.5201
2.5161
2.5129
2.5153
2.5201
2.5209
2.5242
2.5242
2.5137
2.5105
2.5048
2.5064
2.5096
2.5137
2.5161
2.5137
2.5080
2.5016
2.5000
2.5000
2.5008
2.5072
2.5096
2.5096
2.5056
2.5185
2.5024
2.4951
2.5032
2.5040
2.5040
2.5088
2.5072
2.5016
2.4976
2.4919
2.4927
2.4984
2.5024
2.5008
2.5080
2.5008
2.4951
2.4863
2.4887
2.4919
2.4992
2.5040
2.5024
2.5000
2.4984
2.4935
2.4943
2.4951
2.4992
2.5056
2.5056
2.5008
2.4992
2.4919
2.4903
2.4895
2.4968
2.5048
2.5056
2.5040
2.5008
2.4951
2.4895
2.4927
2.4984
2.5000
2.5088
2.5016
2.5024
2.4968
2.4903
2.4895
2.4960
2.4984
2.5024
2.5048
2.4992
2.5048
2.5016
2.4919
2.4911
2.4984
2.5016
2.5056
2.5040
2.4976
2.4895
2.4927
2.4895
2.4935
2.5008
2.5016
2.5024
2.4984
2.4943
2.4911
2.4895
2.4911
2.4960
2.4992
2.5040
2.4992
2.5000
2.4951
2.4951
2.4951
2.5008
2.5048
2.5096
2.5000
2.4984
2.4984
2.4960
2.4943
2.4976
2.5008
2.5024
2.5008
2.4992
2.4943
2.4984
2.4951
2.4984
2.5024
2.5088
2.5088
2.5048
2.5048
2.4976
2.4903
2.4951
2.5048
2.5096
2.5113
2.5113
2.5032
2.4976
2.4943
2.4927
2.4968
2.4992
2.5056
2.5016
2.5016
2.5000
2.4903
2.4976
2.4992
2.5000
2.5064
2.5105
2.5088
2.5096
2.5048
2.4968
2.4976
2.5024
2.5080
2.5113
2.5064
2.5024
2.4992
2.4887
2.4911
2.5000
2.5072
2.5145
2.5096
2.5072
2.5008
2.5016
2.5016
2.5024
2.5080
2.5121
2.5056
2.5105
2.5008
2.5008
2.5008
2.5040
2.5048
2.5137
2.5161
2.5137
2.5072
2.5048
2.5000
2.5072
2.5056
2.5048
2.5105
2.5096
2.5088
2.5032
2.4992
2.4960
2.4992
2.5016
2.5185
2.5088
2.5024
2.4984
2.4919
2.4927
2.4927
2.5008
2.5024
2.5056
2.5024
2.5032
2.4992
2.4919
2.4935
2.5000
2.5064
2.5121
2.5072
2.5105
2.5064
2.5016
2.5016
2.5032
2.5113
2.5137
2.5121
2.5113
2.5032
2.5032
2.5008
2.5032
2.5040
2.5088
2.5096
2.5113
2.5072
2.5032
2.5008
2.5032
2.5024
2.5064
2.5056
2.5096
2.5080
2.5040
2.5000
2.4960
2.5048
2.5056
2.5088
2.5145
2.5121
2.5153
2.4992
2.4960
2.4976
2.5000
2.5048
2.5056
2.5072
2.5032
2.5000
2.4960
2.5000
2.5032
2.5056
2.5096
2.5088
2.5072
2.5032
2.5032
2.4992
2.5056
2.5048
2.5080
2.5105
2.5072
2.5088
2.4992
2.5008
2.4976
2.5008
2.4984
2.5225
2.5088
2.5096
2.5121
2.5072
2.5032
2.5072
2.5080
2.5064
2.5105
2.5096
2.5040
2.4968
2.4976
2.4992
2.5072
2.5121
2.5113
2.5080
2.5064
2.5016
2.4935
2.4968
2.4984
2.5056
2.5072
2.5096
2.5032
2.4984
2.5048
2.4992
2.5088
2.5129
2.5137
2.5121
2.5088
2.5040
2.5056
2.5032
2.5032
2.5056
2.5072
2.5056
2.5105
2.5113
2.5024
2.5024
2.5024
2.5072
2.5113
2.5121
2.5145
2.5080
2.5024
2.4992
2.5056
2.5080
2.5088
2.5072
2.5080
2.5096
2.5056
2.5032
2.5048
2.5000
2.5088
2.5113
2.5145
2.5121
2.5113
2.5080
2.5040
2.5024
2.5064
2.5105
2.5201
2.5080
2.5088
2.5000
2.4984
2.4951
2.5024
2.5088
2.5129
2.5185
2.5088
2.5032
2.4992
2.4984
2.5048
2.5064
2.5080
2.5121
2.5137
2.5105
2.5064
2.5080
2.5096
2.5032
2.5129
2.5129
2.5137
2.5113
2.5137
2.5000
2.5008
2.5088
2.5048
2.5113
2.5113
2.5056
2.5048
2.5000
2.4951
2.4992
2.5056
2.5153
2.5153
2.5177
2.5145
2.5064
2.5096
2.5121
2.5137
2.5185
2.5177
2.5193
2.5121
2.5072
2.5096
2.5080
2.5064
2.5129
2.5161
2.5201
2.5153
2.5113
2.5153
2.5048
2.5064
2.5096
2.5121
2.5145
2.5121
2.5185
2.5105
2.5096
2.5088
2.5137
2.5177
2.5153
2.5185
2.5185
2.5137
2.5105
2.5169
2.5225
2.5298
2.5290
2.5314
2.5242
2.5233
2.5225
2.5233
2.5217
2.5266
2.5266
2.5274
2.5225
2.5242
2.5121
2.5145
2.5153
2.5145
2.5233
2.5274
2.5306
2.5209
2.5217
2.5113
2.5121
2.5185
2.5233
2.5225
2.5242
2.5225
2.5177
2.5113
2.5096
2.5113
2.5169
2.5242
2.5217
2.5225
2.5225
2.5129
2.5096
2.5105
2.5096
2.5161
2.5185
2.5209
2.5217
2.5137
2.5121
2.5096
2.5105
2.5193
2.5209
2.5233
2.5177
2.5185
2.5096
2.5145
2.5129
2.5121
2.5137
2.5169
2.5153
2.5129
2.5088
2.5064
2.5048
2.5129
2.5129
2.5169
2.5185
2.5153
2.5153
2.5129
2.5064
2.5121
2.5193
2.5209
2.5217
2.5145
2.5161
2.5137
2.5121
2.5129
2.5161
2.5161
2.5209
2.5225
2.5201
2.5153
2.5072
2.5113
2.5185
2.5233
2.5233
2.5242
2.5233
2.5177
2.5105
2.5088
2.5145
2.5242
2.5242
2.5258
2.5242
2.5233
2.5185
2.5185
2.5177
2.5209
2.5274
2.5306
2.5250
2.5217
2.5209
2.5185
2.5177
2.5225
2.5274
2.5282
2.5290
2.5290
2.5266
2.5185
2.5274
2.5290
2.5419
2.5475
2.5540
2.5523
2.5491
2.5435
2.5515
2.5515
2.5532
2.5556
2.5556
2.5548
2.5507
2.5378
2.5330
2.5266
2.5274
2.5314
2.5225
2.5161
2.5161
2.5113
2.5080
2.5072
2.5193
2.5177
2.5153
2.5145
2.5121
2.5129
2.5056
2.5008
2.4976
2.5016
2.5032
2.5008
2.5000
2.5008
2.4976
2.4984
2.4960
2.5016
2.5105
2.5129
2.5121
2.5105
2.5088
2.5064
2.5080
2.5113
2.5153
2.5145
2.5201
2.5161
2.5145
2.5129
2.5153
2.5024
2.5217
2.5233
2.5233
2.5258
2.5193
2.5153
2.5201
2.5177
2.5177
2.5217
2.5282
2.5282
2.5250
2.5129
2.5113
2.5137
2.5201
2.5274
2.5258
2.5258
2.5242
2.5217
2.5217
2.5185
2.5201
2.5250
2.5266
2.5225
2.5282
2.5233
2.5169
2.5177
2.5153
2.5153
2.5242
2.5258
2.5266
2.5209
2.5169
2.5169
2.5185
2.5064
2.5258
2.5306
2.5274
2.5266
2.5242
2.5153
2.5105
2.5169
2.5193
2.5193
2.5282
2.5242
2.5298
2.5258
2.5242
2.5201
2.5258
2.5314
2.5322
2.5322
2.5322
2.5217
2.5217
2.5177
2.5177
2.5209
2.5274
2.5290
2.5290
2.5153
2.5225
2.5177
2.5177
2.5354
2.5290
2.5282
2.5306
2.5250
2.5185
2.5225
2.5201
2.5225
2.5306
2.5290
2.5250
2.5282
2.5266
2.5209
2.5185
2.5242
2.5274
2.5314
2.5282
2.5282
2.5322
2.5242
2.5217
2.5233
2.5250
2.5322
2.5314
2.5290
2.5298
2.5258
2.5225
2.5201
2.5258
2.5266
2.5330
2.5290
2.5306
2.5201
2.5161
2.5169
2.5193
2.5209
2.5282
2.5290
2.5290
2.5225
2.5282
2.5258
2.5225
2.5330
2.5354
2.5338
2.5322
2.5306
2.5233
2.5225
2.5217
2.5274
2.5306
2.5322
2.5346
2.5274
2.5250
2.5217
2.5161
2.5201
2.5258
2.5298
2.5266
2.5250
2.5274
2.5177
2.5080
2.5201
2.5282
2.5387
2.5419
2.5411
2.5354
2.5338
2.5282
2.5306
2.5370
2.5378
2.5395
2.5419
2.5378
2.5354
2.5282
2.5201
2.5314
2.5370
2.5435
2.5419
2.5387
2.5378
2.5427
2.5378
2.5387
2.5507
2.5411
2.5427
2.5435
2.5427
2.5395
2.5378
2.5354
2.5370
2.5467
2.5491
2.5475
2.5451
2.5395
2.5378
2.5378
2.5387
2.5387
2.5459
2.5459
2.5451
2.5403
2.5322
2.5346
2.5387
2.5435
2.5419
2.5483
2.5515
2.5427
2.5362
2.5378
2.5370
2.5411
2.5451
2.5467
2.5483
2.5411
2.5395
2.5370
2.5338
2.5354
2.5443
2.5483
2.5483
2.5459
2.5419
2.5370
2.5378
2.5346
2.5362
2.5419
2.5443
2.5459
2.5403
2.5354
2.5298
2.5290
2.5387
2.5346
2.5370
2.5395
2.5354
2.5314
2.5274
2.5225
2.5250
2.5266
2.5314
2.5314
2.5314
2.5258
2.5177
2.5193
2.5145
2.5201
2.5121
2.5274
2.5274
2.5282
2.5217
2.5137
2.5105
2.5145
2.5274
2.5225
2.5201
2.5201
2.5145
2.5105
2.5080
2.5040
2.5137
2.5145
2.5145
2.5088
2.5032
2.5056
2.5056
2.5072
2.5096
2.5169
2.5161
2.5161
2.5185
2.5113
2.5064
2.5016
2.5096
2.5161
2.5193
2.5145
2.5129
2.5080
2.5121
2.5040
2.5064
2.5080
2.5113
2.5105
2.5096
2.5016
2.4984
2.4960
2.4927
2.4992
2.5056
2.5113
2.5113
2.5088
2.5024
2.4968
2.5048
2.5024
2.5048
2.5040
2.5056
2.5064
2.5024
2.4976
2.4976
2.5048
2.5096
2.5145
2.5137
2.5121
2.5113
2.5105
2.5024
2.5088
2.5113
2.5137
2.5137
2.5129
2.5072
2.5080
2.5048
2.4960
2.5048
2.5072
2.5105
2.5096
2.5105
2.5032
2.5024
2.5016
2.5064
2.5105
2.5129
2.5129
2.5137
2.5105
2.5080
2.5048
2.5008
2.5016
2.5064
2.5129
2.5153
2.5064
2.5088
2.5016
2.5008
2.5056
2.5088
2.5129
2.5080
2.5088
2.5040
2.5056
2.5024
2.5064
2.5145
2.5129
2.5169
2.5096
2.5105
2.5032
2.5056
2.5048
2.5088
2.5024
2.5161
2.5129
2.5137
2.5088
2.5080
2.5056
2.5096
2.5145
2.5169
2.5113
2.5096
2.5080
2.5056
2.5048
2.4968
2.5096
2.5153
2.5153
2.5153
2.5105
2.5088
2.5056
2.5096
2.5129
2.5137
2.5137
2.5129
2.5056
2.5072
2.5008
2.5000
2.5016
2.5096
2.5145
2.5169
2.5080
2.5072
2.5145
2.5040
2.5040
2.5121
2.5137
2.5209
2.5153
2.5129
2.5064
2.5080
2.5088
2.5088
2.5145
2.5153
2.5153
2.5121
2.5080
2.5032
2.5000
2.5113
2.5113
2.5153
2.5161
2.5169
2.5072
2.5024
2.5032
2.5024
2.5072
2.5169
2.5113
2.5121
2.5113
2.5056
2.5000
2.5016
2.5008
2.5056
2.5105
2.5088
2.5072
2.5032
2.5048
2.5016
2.5040
2.5072
2.5137
2.5153
2.5161
2.5129
2.5088
2.5064
2.5024
2.5129
2.5137
2.5129
2.5169
2.5105
2.5072
2.5056
2.5096
2.5072
2.5137
2.5153
2.5169
2.5129
2.5105
2.5032
2.5064
2.5024
2.5113
2.5145
2.5153
2.5153
2.5088
2.5032
2.5056
2.5064
2.5072
2.5121
2.5113
2.5056
2.5072
2.5016
2.5016
2.5000
2.5048
2.5096
2.5121
2.5121
2.5121
2.5088
2.5072
2.5064
2.5056
2.5121
2.5145
2.5177
2.5105
2.5250
2.5096
2.5024
2.5072
2.5088
2.5161
2.5129
2.5169
2.5137
2.5064
2.5032
2.5064
2.5072
2.5105
2.5153
2.5121
2.5177
2.5000
2.4951
2.5000
2.5032
2.5072
2.5145
2.5137
2.5096
2.5121
2.5040
2.5040
2.5064
2.5129
2.5129
2.5145
2.5161
2.5153
2.5105
2.5040
2.5040
2.5121
2.5121
2.5113
2.5169
2.5113
2.5105
2.5064
2.5064
2.5064
2.5113
2.5137
2.5145
2.5177
2.5056
2.4976
2.4984
2.4984
2.5056
2.5072
2.5088
2.5105
2.5121
2.5096
2.5016
2.5040
2.5121
2.5161
2.5161
2.5153
2.5137
2.5072
2.5016
2.5008
2.5088
2.5177
2.5217
2.5209
2.5137
2.5153
2.5096
2.5000
2.5056
2.5129
2.5193
2.5201
2.5161
2.5145
2.5105
2.5040
2.5032
2.5048
2.5121
2.5129
2.5113
2.5096
2.5096
2.5064
2.5064
2.5048
2.5105
2.5121
2.5137
2.5129
2.5088
2.5032
2.5121
2.5024
2.5105
2.5161
2.5161
2.5217
2.5177
2.5096
2.5048
2.5056
2.5088
2.5105
2.5153
2.5169
2.5129
2.5096
2.5064
2.5121
2.5096
2.5105
2.5161
2.5161
2.5169
2.5105
2.5088
2.5064
2.5096
2.5137
2.5153
2.5169
2.5161
2.5121
2.5129
2.5113
2.5064
2.5153
2.5169
2.5193
2.5233
2.5137
2.5129
2.5161
2.5032
2.5105
2.5113
2.5129
2.5145
2.5153
2.5105
2.5048
2.5048
2.5080
2.5137
2.5201
2.5258
2.5266
2.5137
2.5185
2.5105
2.5137
2.5161
2.5209
2.5258
2.5153
2.5209
2.5153
2.5113
2.5121
2.5137
2.5169
2.5161
2.5209
2.5153
2.5153
2.5185
2.5113
2.5088
2.5137
2.5185
2.5193
2.5177
2.5145
2.5105
2.5080
2.5113
2.5080
2.5169
2.5177
2.5161
2.5096
2.5064
2.5040
2.5064
2.5056
2.5080
2.5153
2.5153
2.5161
2.5137
2.5064
2.5024
2.5040
2.5105
2.5137
2.5193
2.5145
2.5121
2.5048
2.5032
2.5064
2.5088
2.5129
2.5137
2.5153
2.5113
2.5088
2.5024
2.5024
2.5072
2.5096
2.5105
2.5096
2.5096
2.5032
2.5024
2.4984
2.5064
2.5096
2.5153
2.5113
2.5121
2.5080
2.5056
2.5024
2.5048
2.5064
2.5000
2.5153
2.5169
2.5145
2.5096
2.5072
2.5080
2.5105
2.5145
2.5145
2.5161
2.5161
2.5145
2.5121
2.5064
2.5088
2.5121
2.5137
2.5201
2.5145
2.5096
2.5040
2.4992
2.5040
2.5161
2.5209
2.5282
2.5266
2.5225
2.5169
2.5145
2.5129
2.5161
2.5209
2.5290
2.5314
2.5314
2.5242
2.5225
2.5201
2.5306
2.5378
2.5443
2.5532
2.5540
2.5532
2.5467
2.5427
2.5427
2.5411
2.5451
2.5467
2.5419
2.5362
2.5266
2.5161
2.5088
2.5080
2.5080
2.5113
2.5088
2.5064
2.5048
2.5016
2.5000
2.5040
2.5056
2.5145
2.5105
2.5113
2.5032
2.5040
2.5000
2.4927
2.5064
2.4903
2.4992
2.5008
2.4984
2.4976
2.4951
2.4927
2.5016
2.5072
2.5105
2.5121
2.5145
2.5105
2.5072
2.5088
2.5056
2.5096
2.5185
2.5201
2.5185
2.5169
2.5113
2.5145
2.5096
2.5088
2.5177
2.5217
2.5209
2.5137
2.5088
2.5080
2.5080
2.5145
2.5145
2.5169
2.5161
2.5161
2.5113
2.5105
2.5080
2.5072
2.5088
2.5201
2.5169
2.5177
2.5161
2.5040
2.5048
2.5032
2.5072
2.5177
2.5177
2.5153
2.5145
2.5129
2.5096
2.5105
2.5105
2.5129
2.5137
2.5145
2.5169
2.5105
2.5056
2.5048
2.5072
2.5153
2.5201
2.5193
2.5225
2.5225
2.5209
2.5177
2.5161
2.5209
2.5193
2.5242
2.5242
2.5266
2.5201
2.5169
2.5177
2.5169
2.5266
2.5209
2.5233
2.5233
2.5137
2.5113
2.5105
2.5088
2.5105
2.5201
2.5177
2.5217
2.5169
2.5145
2.5113
2.5145
2.5137
2.5177
2.5225
2.5250
2.5242
2.5193
2.5153
2.5129
2.5185
2.5201
2.5233
2.5258
2.5250
2.5209
2.5250
2.5193
2.5177
2.5169
2.5250
2.5250
2.5258
2.5209
2.5169
2.5096
2.5113
2.5169
2.5209
2.5209
2.5225
2.5225
2.5201
2.5113
2.5137
2.5121
2.5201
2.5250
2.5225
2.5266
2.5193
2.5169
2.5161
2.5145
2.5217
2.5233
2.5298
2.5306
2.5242
2.5185
2.5209
2.5185
2.5217
2.5266
2.5266
2.5306
2.5266
2.5266
2.5209
2.5177
2.5185
2.5242
2.5258
2.5274
2.5282
2.5258
2.5161
2.5185
2.5185
2.5225
2.5282
2.5322
2.5274
2.5298
2.5282
2.5209
2.5193
2.5193
2.5314
2.5346
2.5362
2.5370
2.5314
2.5282
2.5258
2.5306
2.5346
2.5370
2.5387
2.5378
2.5322
2.5282
2.5217
2.5266
2.5314
2.5346
2.5362
2.5354
2.5346
2.5330
2.5233
2.5282
2.5346
2.5378
2.5370
2.5411
2.5370
2.5306
2.5322
2.5274
2.5322
2.5370
2.5419
2.5411
2.5395
2.5362
2.5314
2.5282
2.5322
2.5387
2.5435
2.5443
2.5451
2.5435
2.5403
2.5354
2.5362
2.5411
2.5443
2.5443
2.5451
2.5523
2.5403
2.5338
2.5314
2.5330
2.5370
2.5411
2.5419
2.5451
2.5435
2.5362
2.5306
2.5322
2.5370
2.5322
2.5411
2.5387
2.5362
2.5298
2.5306
2.5290
2.5314
2.5354
2.5354
2.5395
2.5330
2.5306
2.5314
2.5282
2.5290
2.5322
2.5314
2.5370
2.5306
2.5258
2.5201
2.5145
2.5145
2.5185
2.5225
2.5250
2.5242
2.5161
2.5225
2.5193
2.5209
2.5193
2.5225
2.5233
2.5217
2.5209
2.5105
2.5088
2.5088
2.5129
2.5145
2.5217
2.5201
2.5217
2.5177
2.5137
2.5048
2.5088
2.5137
2.5153
2.5177
2.5185
2.5129
2.5064
2.5032
2.5000
2.5000
2.5121
2.5088
2.5113
2.5056
2.5016
2.4911
2.4968
2.5040
2.5040
2.5088
2.5088
2.5064
2.5032
2.4968
2.4919
2.4951
2.5024
2.5056
2.5105
2.5072
2.5048
2.5032
2.4879
2.4984
2.5032
2.5080
2.5088
2.5096
2.5088
2.5064
2.5024
2.5000
2.5048
2.5088
2.5088
2.5217
2.5129
2.5064
2.5008
2.4968
2.4992
2.5000
2.5040
2.5080
2.5088
2.5177
2.5032
2.4976
2.4960
2.5032
2.5008
2.5048
2.5064
2.4984
2.5024
2.4976
2.4984
2.5032
2.5088
2.5113
2.5129
2.5105
2.5056
2.4992
2.5000
2.4968
2.5048
2.5048
2.5080
2.5080
2.5080
2.5048
2.5024
2.5008
2.5024
2.5072
2.5121
2.5088
2.5193
2.5064
2.5032
2.4968
2.4968
2.5016
2.5080
2.5096
2.5096
2.5096
2.5056
2.5024
2.4943
2.5000
2.5064
2.5129
2.5129
2.5088
2.5072
2.5040
2.5024
2.5064
2.5121
2.5161
2.5145
2.5096
2.5064
2.4943
2.5016
2.5032
2.5072
2.5129
2.5153
2.5096
2.5056
2.5032
2.5000
2.4976
2.5056
2.5096
2.5161
2.5137
2.5113
2.5080
2.5040
2.5048
2.5056
2.5121
2.5088
2.5096
2.5072
2.5048
2.5032
2.5024
2.4976
2.5040
2.5129
2.5145
2.5137
2.5129
2.5056
2.5016
2.5016
2.5048
2.5072
2.5129
2.5129
2.5064
2.5032
2.4984
2.5000
2.5064
2.5088
2.5177
2.5169
2.5225
2.5137
2.5088
2.5048
2.5048
2.5088
2.5129
2.5080
2.5096
2.5088
2.5048
2.5024
2.5008
2.5048
2.5040
2.5113
2.5113
2.5056
2.5072
2.5024
2.5129
2.5024
2.5072
2.5121
2.5129
2.5137
2.5064
2.5024
2.5008
2.5048
2.5072
2.5105
2.5113
2.5137
2.5080
2.5064
2.5032
2.5016
2.5032
2.5096
2.5129
2.5129
2.5088
2.5072
2.5016
2.5056
2.5008
2.5048
2.5040
2.5096
2.5056
2.5032
2.5032
2.5000
2.4960
2.4984
2.5040
2.5105
2.5088
2.5032
2.4984
2.5000
2.5024
2.5080
2.5096
2.5145
2.5145
2.5161
2.5129
2.5040
2.5024
2.5080
2.5161
2.5169
2.5113
2.5137
2.5121
2.5064
2.5064
2.5040
2.5040
2.5072
2.5113
2.5096
2.5056
2.5137
2.5056
2.5056
2.5121
2.5088
2.5137
2.5137
2.5113
2.5088
2.5000
2.4992
2.4992
2.5072
2.5121
2.5072
2.5129
2.5064
2.5096
2.5008
2.5064
2.5088
2.5088
2.5145
2.5129
2.5105
2.5064
2.5048
2.5072
2.5072
2.5129
2.5169
2.5121
2.5000
2.5088
2.5024
2.4968
2.5016
2.5056
2.5064
2.5088
2.5105
2.5080
2.5064
2.5008
2.5008
2.5088
2.5137
2.5153
2.5153
2.5105
2.5137
2.5008
2.5056
2.5072
2.5185
2.5153
2.5072
2.5145
2.5105
2.5080
2.5032
2.5088
2.5129
2.5121
2.5129
2.5105
2.5040
2.4976
2.4951
2.5048
2.5105
2.5161
2.5185
2.5129
2.5105
2.5072
2.5032
2.5040
2.5048
2.5064
2.5088
2.5105
2.5080
2.5048
2.5040
2.4992
2.5040
2.5080
2.5209
2.5145
2.5169
2.5105
2.5048
2.5072
2.5040
2.5105
2.5145
2.5161
2.5161
2.5113
2.5072
2.5024
2.5096
2.5080
2.5105
2.5177
2.5145
2.5113
2.5153
2.5048
2.5040
2.5016
2.5080
2.5169
2.5153
2.5145
2.5121
2.4992
2.5000
2.5024
2.5088
2.5113
2.5121
2.5096
2.5064
2.5040
2.5016
2.5008
2.5105
2.5105
2.5153
2.5145
2.5153
2.5121
2.5024
2.5064
2.5064
2.5113
2.5177
2.5177
2.5185
2.5137
2.5088
2.5048
2.5096
2.5121
2.5153
2.5185
2.5121
2.5113
2.5105
2.5056
2.5072
2.5088
2.5129
2.5145
2.5145
2.5145
2.5153
2.5080
2.5096
2.5088
2.5145
2.5193
2.5177
2.5242
2.5145
2.5072
2.5072
2.5056
2.5096
2.5137
2.5177
2.5217
2.5169
2.5113
2.5032
2.5040
2.5088
2.5161
2.5201
2.5177
2.5177
2.5153
2.5137
2.5096
2.5121
2.5137
2.5201
2.5217
2.5185
2.5145
2.5121
2.5129
2.5105
2.5298
2.5193
2.5242
2.5209
2.5185
2.5161
2.5129
2.5153
2.5137
2.5201
2.5185
2.5201
2.5185
2.5129
2.5169
2.5080
2.5064
2.5137
2.5096
2.5137
2.5137
2.5105
2.5040
2.5000
2.5016
2.5096
2.5161
2.5185
2.5193
2.5161
2.5064
2.5064
2.5032
2.5145
2.5153
2.5177
2.5153
2.5113
2.5145
2.5048
2.5096
2.5088
2.5145
2.5105
2.5129
2.5113
2.5105
2.5080
2.5088
2.5032
2.5072
2.5121
2.5096
2.5129
2.5105
2.5056
2.5008
2.5016
2.5096
2.5072
2.5121
2.5121
2.5121
2.5056
2.5048
2.5032
2.5064
2.5072
2.5145
2.5121
2.5121
2.5056
2.5048
2.4976
2.5024
2.5056
2.5129
2.5145
2.5153
2.5121
2.5088
2.5032
2.5008
2.5024
2.5113
2.5105
2.5129
2.5000
2.5072
2.5072
2.5088
2.5096
2.5129
2.5169
2.5185
2.5193
2.5169
2.5096
2.5129
2.5137
2.5145
2.5209
2.5193
2.5274
2.5225
2.5193
2.5137
2.5169
2.5233
2.5282
2.5362
2.5411
2.5443
2.5419
2.5387
2.5378
2.5419
2.5451
2.5451
2.5443
2.5427
2.5370
2.5322
2.5225
2.5169
2.5161
2.5145
2.5145
2.5072
2.5193
2.5072
2.5064
2.5000
2.5024
2.5121
2.5161
2.5137
2.5096
2.5048
2.4992
2.4927
2.4919
2.4943
2.4943
2.4935
2.4943
2.4960
2.4879
2.4903
2.4943
2.5024
2.5064
2.5088
2.5072
2.5064
2.5056
2.5040
2.5024
2.5072
2.5129
2.5161
2.5161
2.5177
2.5153
2.5048
2.5048
2.5088
2.5121
2.5113
2.5129
2.5113
2.5129
2.5088
2.5032
2.5048
2.5096
2.5201
2.5225
2.5242
2.5209
2.5258
2.5161
2.5064
2.5088
2.5145
2.5233
2.5217
2.5201
2.5153
2.5080
2.5032
2.5129
2.5169
2.5105
2.5242
2.5258
2.5185
2.5177
2.5145
2.5129
2.5153
2.5185
2.5250
2.5193
2.5193
2.5153
2.5080
2.5048
2.5129
2.5193
2.5233
2.5258
2.5193
2.5177
2.5153
2.5080
2.5121
2.5161
2.5193
2.5217
2.5177
2.5161
2.5177
2.5056
2.5072
2.5064
2.5145
2.5217
2.5185
2.5161
2.5113
2.5072
2.5121
2.5153
2.5209
2.5209
2.5233
2.5209
2.5201
2.5161
2.5129
2.5129
2.5169
2.5185
2.5242
2.5217
2.5177
2.5145
2.5137
2.5137
2.5185
2.5258
2.5274
2.5274
2.5233
2.5209
2.5177
2.5145
2.5121
2.5193
2.5242
2.5250
2.5274
2.5209
2.5129
2.5088
2.5096
2.5153
2.5209
2.5250
2.5258
2.5193
2.5129
2.5145
2.5137
2.5169
2.5217
2.5250
2.5242
2.5225
2.5161
2.5088
2.5137
2.5137
2.5201
2.5185
2.5225
2.5225
2.5217
2.5161
2.5193
2.5177
2.5225
2.5185
2.5266
2.5314
2.5242
2.5072
2.5096
2.5161
2.5177
2.5290
2.5306
2.5298
2.5290
2.5242
2.5193
2.5185
2.5298
2.5250
2.5290
2.5282
2.5282
2.5298
2.5233
2.5193
2.5225
2.5209
2.5306
2.5282
2.5266
2.5201
2.5258
2.5209
2.5193
2.5169
2.5282
2.5298
2.5282
2.5298
2.5282
2.5266
2.5242
2.5314
2.5330
2.5370
2.5354
2.5330
2.5322
2.5322
2.5209
2.5290
2.5314
2.5314
2.5362
2.5314
2.5346
2.5306
2.5274
2.5266
2.5322
2.5362
2.5387
2.5395
2.5378
2.5330
2.5266
2.5258
2.5314
2.5330
2.5395
2.5395
2.5403
2.5362
2.5322
2.5322
2.5346
2.5338
2.5435
2.5523
2.5419
2.5378
2.5306
2.5298
2.5274
2.5322
2.5387
2.5427
2.5403
2.5370
2.5322
2.5298
2.5250
2.5298
2.5378
2.5378
2.5435
2.5411
2.5378
2.5362
2.5298
2.5266
2.5354
2.5459
2.5403
2.5362
2.5370
2.5395
2.5258
2.5250
2.5298
2.5362
2.5387
2.5427
2.5346
2.5266
2.5225
2.5201
2.5250
2.5217
2.5266
2.5266
2.5250
2.5217
2.5161
2.5137
2.5121
2.5201
2.5225
2.5250
2.5233
2.5153
2.5121
2.5080
2.5056
2.5080
2.5096
2.5145
2.5161
2.5145
2.5072
2.5008
2.4992
2.5032
2.5113
2.5129
2.5161
2.5121
2.5080
2.5008
2.5088
2.5008
2.5064
2.5040
2.5105
2.5072
2.5129
2.5024
2.4968
2.4976
2.5032
2.4976
2.5096
2.5088
2.5064
2.5032
2.4992
2.4960
2.4943
2.5024
2.5056
2.5088
2.5096
2.5072
2.4976
2.4992
2.5032
2.5088
2.5105
2.5250
2.5105
2.5080
2.5032
2.4984
2.5008
2.5048
2.5048
2.5105
2.5096
2.5088
2.5048
2.5048
2.4976
2.4984
2.5016
2.5064
2.5105
2.5072
2.5064
2.5008
2.4968
2.4976
2.5032
2.5072
2.5080
2.5088
2.5000
2.5064
2.4976
2.4976
2.4976
2.5072
2.5080
2.5096
2.5105
2.5024
2.4976
2.4968
2.4976
2.5024
2.5040
2.5040
2.5072
2.4984
2.4911
2.4927
2.4943
2.5016
2.5088
2.5072
2.5121
2.5064
2.4992
2.4992
2.4960
2.5008
2.5064
2.5113
2.5242
2.5096
2.5088
2.5000
2.4976
2.5024
2.5064
2.5121
2.5113
2.5129
2.5064
2.5032
2.5040
2.5008
2.5040
2.5113
2.5080
2.5105
2.5129
2.5080
2.4984
2.4968
2.5024
2.5105
2.5145
2.5121
2.5088
2.5072
2.5040
2.4976
2.4976
2.5080
2.5161
2.5209
2.5137
2.5080
2.5056
2.5032
2.5016
2.5088
2.5113
2.5161
2.5121
2.5096
2.5072
2.5000
2.5137
2.5000
2.5072
2.5096
2.5153
2.5096
2.5016
2.5072
2.5008
2.5056
2.5121
2.5129
2.5129
2.5105
2.5072
2.5040
2.5024
2.4960
2.5000
2.5072
2.5096
2.5105
2.5113
2.5072
2.5000
2.5032
2.5048
2.5088
2.5153
2.5032
2.5177
2.5113
2.5056
2.5048
2.5048
2.5129
2.5145
2.5209
2.5121
2.5080
2.5064
2.4976
2.4960
2.5040
2.5121
2.5105
2.5121
2.5105
2.5032
2.5008
2.5024
2.5056
2.5105
2.5105
2.5129
2.5105
2.5096
2.5040
2.5000
2.5048
2.5096
2.5145
2.5177
2.5137
2.5105
2.5056
2.5008
2.5016
2.5080
2.5161
2.5185
2.5137
2.5161
2.5096
2.5064
2.5040
2.5064
2.5121
2.5169
2.5145
2.5105
2.5056
2.5040
2.4984
2.5080
2.5113
2.5185
2.5177
2.5129
2.5040
2.5016
2.5008
2.4992
2.5072
2.5096
2.5121
2.5145
2.5113
2.5072
2.5016
2.5024
2.5032
2.5088
2.5113
2.5169
2.5088
2.5080
2.5056
2.5040
2.5048
2.5129
2.5185
2.5185
2.5193
2.5113
2.5072
2.5000
2.5048
2.5064
2.5096
2.5080
2.5113
2.5072
2.5048
2.5000
2.4984
2.5040
2.5113
2.5129
2.5169
2.5113
2.5096
2.5000
2.5016
2.5121
2.5088
2.5177
2.5169
2.5217
2.5145
2.5072
2.5024
2.5048
2.5105
2.5121
2.5233
2.5177
2.5137
2.5064
2.5040
2.5000
2.5008
2.5072
2.5121
2.5113
2.5145
2.5048
2.4976
2.5048
2.5016
2.5113
2.5129
2.5113
2.5145
2.5121
2.5048
2.5016
2.5000
2.5016
2.5121
2.5177
2.5193
2.5113
2.5137
2.5056
2.5113
2.5129
2.5153
2.5016
2.5193
2.5161
2.5072
2.5072
2.5048
2.5064
2.5080
2.5153
2.5145
2.5137
2.5153
2.5105
2.5040
2.5072
2.5105
2.5145
2.5185
2.5161
2.5113
2.5056
2.5064
2.5048
2.5072
2.5096
2.5137
2.5145
2.5088
2.5080
2.5032
2.5040
2.5056
2.5040
2.5137
2.5153
2.5113
2.5072
2.5048
2.5008
2.5024
2.5153
2.5105
2.5137
2.5105
2.5048
2.5016
2.5000
2.4984
2.5024
2.5137
2.5201
2.5177
2.5169
2.5145
2.5080
2.5096
2.5113
2.5080
2.5145
2.5161
2.5129
2.5080
2.5064
2.5080
2.5016
2.5088
2.5137
2.5137
2.5145
2.5161
2.5129
2.5048
2.5121
2.5080
2.5121
2.5169
2.5185
2.5137
2.5137
2.5072
2.5048
2.5016
2.5088
2.5145
2.5113
2.5137
2.5113
2.5072
2.5000
2.5040
2.5072
2.5121
2.5161
2.5185
2.5145
2.5113
2.5056
2.5024
2.5064
2.5145
2.5169
2.5209
2.5161
2.5113
2.5048
2.4992
2.5064
2.5121
2.5153
2.5177
2.5145
2.5129
2.5032
2.5032
2.4992
2.5040
2.5113
2.5177
2.5161
2.5129
2.5088
2.5048
2.4968
2.5064
2.5161
2.5201
2.5258
2.5121
2.5080
2.5080
2.5040
2.5008
2.5096
2.5113
2.5145
2.5161
2.5113
2.5113
2.5024
2.5080
2.5072
2.5113
2.5145
2.5298
2.5169
2.5153
2.5056
2.5137
2.5137
2.5217
2.5225
2.5233
2.5209
2.5185
2.5121
2.5121
2.5145
2.5185
2.5169
2.5201
2.5209
2.5113
2.5121
2.5088
2.5032
2.5088
2.5105
2.5137
2.5153
2.5113
2.5113
2.5080
2.5056
2.5080
2.5193
2.5177
2.5193
2.5129
2.5169
2.5113
2.5105
2.5185
2.5185
2.5209
2.5242
2.5322
2.5242
2.5233
2.5137
2.5137
2.5169
2.5233
2.5250
2.5290
2.5233
2.5185
2.5145
2.5129
2.5145
2.5201
2.5266
2.5233
2.5209
2.5161
2.5064
2.5048
2.5040
2.5145
2.5177
2.5201
2.5177
2.5185
2.5121
2.5064
2.5064
2.5096
2.5153
2.5177
2.5153
2.5161
2.5121
2.5072
2.4992
2.5048
2.5064
2.5145
2.5145
2.5113
2.5080
2.5040
2.5016
2.5008
2.5096
2.5105
2.5161
2.5129
2.5113
2.5080
2.5040
2.5064
2.5096
2.5161
2.5129
2.5209
2.5088
2.5040
2.4968
2.5040
2.5048
2.5080
2.5121
2.5129
2.5161
2.5153
2.5088
2.5016
2.5096
2.5169
2.5201
2.5185
2.5193
2.5177
2.5105
2.5096
2.5032
2.5113
2.5113
2.5145
2.5169
2.5129
2.5088
2.5088
2.5048
2.5056
2.5105
2.5121
2.5137
2.5121
2.5088
2.5000
2.5024
2.5048
2.5137
2.5201
2.5209
2.5193
2.5225
2.5153
2.5153
2.5137
2.5145
2.5185
2.5233
2.5258
2.5209
2.5217
2.5153
2.5169
2.5201
2.5306
2.5395
2.5451
2.5427
2.5443
2.5411
2.5387
2.5411
2.5419
2.5451
2.5459
2.5467
2.5346
2.5354
2.5274
2.5225
2.5209
2.5161
2.5153
2.5121
2.5088
2.4992
2.4968
2.4927
2.5121
2.5016
2.5064
2.5088
2.5096
2.5048
2.4976
2.4968
2.4960
2.4992
2.4903
2.4992
2.5000
2.5024
2.4960
2.4935
2.5000
2.5000
2.5056
2.5088
2.5096
2.5129
2.5088
2.5016
2.4984
2.5008
2.5088
2.5113
2.5177
2.5145
2.5088
2.5088
2.5064
2.5080
2.5113
2.5193
2.5225
2.5193
2.5169
2.5201
2.5193
2.5129
2.5169
2.5185
2.5225
2.5338
2.5153
2.5056
2.5105
2.5096
2.5137
2.5169
2.5185
2.5225
2.5177
2.5169
2.5129
2.5153
2.5121
2.5209
2.5233
2.5274
2.5274
2.5209
2.5177
2.5145
2.5121
2.5185
2.5201
2.5209
2.5258
2.5177
2.5105
2.5113
2.5056
2.5129
2.5177
2.5201
2.5201
2.5225
2.5177
2.5145
2.5129
2.5185
2.5177
2.5169
2.5225
2.5121
2.5137
2.5137
2.5080
2.5096
2.5096
2.5209
2.5217
2.5217
2.5209
2.5193
2.5193
2.5145
2.5169
2.5169
2.5370
2.5258
2.5274
2.5225
2.5177
2.5161
2.5169
2.5209
2.5258
2.5298
2.5201
2.5193
2.5185
2.5161
2.5169
2.5153
2.5201
2.5217
2.5250
2.5209
2.5201
2.5129
2.5137
2.5185
2.5201
2.5242
2.5242
2.5250
2.5338
2.5153
2.5080
2.5169
2.5185
2.5217
2.5177
2.5250
2.5177
2.5145
2.5185
2.5177
2.5233
2.5266
2.5314
2.5314
2.5274
2.5250
2.5193
2.5113
2.5161
2.5169
2.5233
2.5242
2.5209
2.5177
2.5121
2.5129
2.5096
2.5161
2.5217
2.5274
2.5290
2.5250
2.5225
2.5145
2.5217
2.5290
2.5322
2.5354
2.5338
2.5330
2.5290
2.5250
2.5233
2.5193
2.5242
2.5242
2.5306
2.5322
2.5258
2.5282
2.5242
2.5233
2.5258
2.5274
2.5338
2.5330
2.5282
2.5233
2.5217
2.5242
2.5314
2.5322
2.5362
2.5330
2.5354
2.5266
2.5233
2.5282
2.5258
2.5306
2.5322
2.5338
2.5314
2.5306
2.5209
2.5233
2.5274
2.5338
2.5330
2.5387
2.5387
2.5378
2.5314
2.5250
2.5298
2.5322
2.5387
2.5427
2.5378
2.5354
2.5362
2.5322
2.5330
2.5346
2.5411
2.5419
2.5467
2.5435
2.5395
2.5330
2.5322
2.5322
2.5370
2.5427
2.5483
2.5483
2.5427
2.5378
2.5338
2.5298
2.5322
2.5370
2.5387
2.5403
2.5370
2.5403
2.5314
2.5290
2.5306
2.5370
2.5427
2.5451
2.5387
2.5387
2.5322
2.5322
2.5314
2.5395
2.5395
2.5411
2.5435
2.5354
2.5346
2.5290
2.5274
2.5282
2.5346
2.5378
2.5427
2.5314
2.5306
2.5258
2.5225
2.5209
2.5266
2.5290
2.5290
2.5274
2.5233
2.5177
2.5177
2.5193
2.5217
2.5258
2.5233
2.5233
2.5242
2.5064
2.5121
2.5088
2.5096
2.5169
2.5169
2.5217
2.5177
2.5080
2.5064
2.5105
2.5032
2.5072
2.5088
2.5088
2.5096
2.5113
2.5072
2.5000
2.5000
2.5040
2.5096
2.5129
2.5113
2.5040
2.5024
2.5024
2.4976
2.5016
2.5113
2.5129
2.5113
2.5088
2.5064
2.5000
2.4992
2.4960
2.5008
2.5080
2.5153
2.5113
2.5080
2.5064
2.5024
2.5088
2.5096
2.5129
2.5153
2.5113
2.5056
2.5016
2.4992
2.4960
2.5000
2.5048
2.5121
2.5113
2.5096
2.5064
2.5016
2.5072
2.5024
2.5048
2.5080
2.5040
2.5008
2.5032
2.4992
2.4976
2.5048
2.5040
2.5040
2.5080
2.5080
2.5024
2.4984
2.4976
2.5024
2.5008
2.5016
2.5064
2.5080
2.5064
2.5040
2.5032
2.5008
2.4992
2.5024
2.5105
2.5129
2.5105
2.5088
2.5056
2.5008
2.5032
2.5088
2.5129
2.5153
2.5137
2.5153
2.5080
2.5129
2.5056
2.5072
2.5088
2.5096
2.5105
2.5072
2.5064
2.5032
2.4960
2.4992
2.5056
2.5088
2.5129
2.5137
2.5129
2.5040
2.5024
2.5032
2.5064
2.5088
2.5137
2.5080
2.5080
2.5040
2.5064
2.4992
2.5024
2.5105
2.5169
2.5153
2.5137
2.5080
2.5072
2.5032
2.4992
2.5048
2.5072
2.5145
2.5048
2.5048
2.4992
2.4927
2.4911
2.4968
2.5129
2.5088
2.5105
2.5040
2.5064
2.5072
2.5072
2.5072
2.5088
2.5161
2.5161
2.5137
2.5113
2.5072
2.5064
2.5080
2.5032
2.5145
2.5105
2.5137
2.5145
2.5048
2.5008
2.5056
2.5129
2.5121
2.5129
2.5121
2.5096
2.5113
2.5024
2.5008
2.5016
2.5064
2.5088
2.5129
2.5080
2.5040
2.4976
2.4935
2.4960
2.4976
2.5056
2.5088
2.5080
2.5032
2.5040
2.5016
2.4992
2.5048
2.5161
2.5129
2.5153
2.5080
2.5056
2.5040
2.5032
2.5016
2.5040
2.5121
2.5153
2.5129
2.5113
2.5080
2.5072
2.5056
2.5113
2.5088
2.5177
2.5153
2.5153
2.5048
2.5024
2.4984
2.5040
2.5121
2.5088
2.5113
2.5121
2.5064
2.5080
2.5040
2.5064
2.5088
2.5129
2.5129
2.5121
2.5088
2.5056
2.5040
2.5040
2.5032
2.5105
2.5129
2.5113
2.5242
2.5096
2.5064
2.5056
2.5048
2.5137
2.5121
2.5121
2.5121
2.5064
2.5105
2.5056
2.5080
2.5137
2.5145
2.5169
2.5113
2.5096
2.5032
2.5000
2.5040
2.5105
2.5129
2.5161
2.5145
2.5137
2.5105
2.5040
2.5040
2.5088
2.5250
2.5145
2.5145
2.5080
2.5064
2.5040
2.5016
2.5121
2.5129
2.5153
2.5274
2.5153
2.5121
2.5129
2.5040
2.5048
2.5121
2.5145
2.5137
2.5161
2.5113
2.5088
2.5032
2.5032
2.5048
2.5096
2.5185
2.5169
2.5096
2.5088
2.5040
2.5056
2.5048
2.5105
2.5161
2.5169
2.5105
2.5024
2.5080
2.5032
2.5024
2.5088
2.5121
2.5169
2.5177
2.5121
2.5088
2.5008
2.5040
2.5024
2.5040
2.5161
2.5169
2.5137
2.5088
2.5056
2.5040
2.5048
2.5121
2.5201
2.5193
2.5201
2.5177
2.5153
2.5105
2.5105
2.5121
2.5185
2.5185
2.5064
2.5137
2.5072
2.5048
2.5088
2.5129
2.5113
2.5193
2.5145
2.5121
2.5048
2.5032
2.5080
2.5105
2.5088
2.5145
2.5161
2.5121
2.5064
2.5072
2.5024
2.5008
2.5024
2.5088
2.5137
2.5129
2.5072
2.5072
2.5000
2.5040
2.5096
2.5088
2.5129
2.5177
2.5105
2.5113
2.5056
2.5056
2.5064
2.5129
2.5153
2.5217
2.5185
2.5072
2.5121
2.5056
2.5080
2.5153
2.5129
2.5177
2.5096
2.5129
2.5072
2.5032
2.5016
2.5064
2.5121
2.5105
2.5137
2.5040
2.5088
2.5024
2.5024
2.5048
2.5096
2.5129
2.5161
2.5121
2.5088
2.5080
2.5032
2.5056
2.5145
2.5137
2.5185
2.5145
2.5193
2.5201
2.5088
2.5080
2.5080
2.5040
2.5113
2.5153
2.5121
2.5096
2.5072
2.5072
2.5088
2.5096
2.5177
2.5201
2.5153
2.5153
2.5121
2.5121
2.5145
2.5153
2.5161
2.5193
2.5161
2.5121
2.5096
2.5040
2.5032
2.5048
2.5096
2.5072
2.5193
2.5185
2.5113
2.5080
2.5096
2.5145
2.5129
2.5177
2.5185
2.5177
2.5129
2.5096
2.5056
2.5072
2.5113
2.5121
2.5177
2.5161
2.5129
2.5048
2.5072
2.5072
2.5088
2.5145
2.5161
2.5137
2.5113
2.5145
2.5088
2.4984
2.5040
2.5072
2.5121
2.5153
2.5121
2.5088
2.5016
2.4935
2.5056
2.5129
2.5048
2.5169
2.5137
2.5129
2.5088
2.5032
2.5024
2.5105
2.5145
2.5258
2.5169
2.5145
2.5225
2.5080
2.5185
2.5056
2.5121
2.5169
2.5201
2.5193
2.5161
2.5088
2.5024
2.5064
2.5153
2.5242
2.5217
2.5225
2.5153
2.5153
2.5096
2.5048
2.5193
2.5209
2.5217
2.5217
2.5201
2.5177
2.5137
2.5064
2.5129
2.5177
2.5209
2.5217
2.5209
2.5129
2.5096
2.5072
2.5096
2.5370
2.5258
2.5266
2.5266
2.5217
2.5153
2.5161
2.5113
2.5121
2.5177
2.5169
2.5225
2.5242
2.5201
2.5129
2.5064
2.5129
2.5193
2.5266
2.5258
2.5250
2.5161
2.5153
2.5113
2.5080
2.5096
2.5177
2.5185
2.5225
2.5153
2.5137
2.5105
2.5121
2.5201
2.5217
2.5258
2.5233
2.5217
2.5193
2.5153
2.5096
2.5113
2.5137
2.5145
2.5177
2.5193
2.5096
2.5080
2.5056
2.5072
2.5113
2.5129
2.5129
2.5137
2.5105
2.5080
2.5016
2.5080
2.5096
2.5032
2.5113
2.5161
2.5153
2.5113
2.5080
2.5064
2.5048
2.5129
2.5153
2.5169
2.5121
2.5113
2.5072
2.5016
2.5000
2.5040
2.5113
2.5129
2.5105
2.5096
2.5072
2.4984
2.5032
2.5064
2.5169
2.5129
2.5177
2.5153
2.5121
2.5113
2.5080
2.5105
2.5161
2.5121
2.5153
2.5161
2.5137
2.5153
2.5064
2.5080
2.5088
2.5153
2.5225
2.5177
2.5145
2.5072
2.5072
2.5048
2.5113
2.5121
2.5145
2.5161
2.5161
2.5113
2.5056
2.4984
2.5040
2.5137
2.5153
2.5233
2.5177
2.5185
2.5129
2.5129
2.5064
2.5137
2.5169
2.5193
2.5266
2.5145
2.5145
2.5177
2.5113
2.5161
2.5250
2.5290
2.5346
2.5298
2.5298
2.5274
2.5354
2.5306
2.5451
2.5467
2.5475
2.5459
2.5419
2.5354
2.5330
2.5290
2.5387
2.5354
2.5354
2.5217
2.5282
2.5209
2.5113
2.5048
2.5056
2.5064
2.5088
2.5096
2.5096
2.5040
2.5024
2.4992
2.5048
2.5048
2.5105
2.5096
2.5080
2.5000
2.4935
2.4871
2.4863
2.4927
2.5016
2.5040
2.5048
2.5056
2.5048
2.5000
2.5048
2.5024
2.5105
2.5080
2.5121
2.5153
2.5072
2.5129
2.5024
2.5096
2.5121
2.5169
2.5201
2.5177
2.5145
2.5137
2.5096
2.5242
2.5137
2.5145
2.5193
2.5250
2.5161
2.5129
2.5080
2.5105
2.5153
2.5225
2.5233
2.5233
2.5242
2.5161
2.5096
2.5145
2.5169
2.5161
2.5169
2.5201
2.5185
2.5177
2.5169
2.5137
2.5137
2.5193
2.5233
2.5217
2.5242
2.5177
2.5129
2.5137
2.5105
2.5121
2.5177
2.5201
2.5225
2.5185
2.5185
2.5113
2.5016
2.5121
2.5177
2.5145
2.5185
2.5121
2.5177
2.5145
2.5048
2.5121
2.5129
2.5161
2.5185
2.5161
2.5177
2.5113
2.5137
2.5121
2.5105
2.5209
2.5193
2.5233
2.5161
2.5137
2.5129
2.5088
2.5088
2.5161
2.5233
2.5274
2.5266
2.5225
2.5201
2.5193
2.5145
2.5185
2.5217
2.5354
2.5242
2.5233
2.5217
2.5129
2.5137
2.5145
2.5153
2.5225
2.5217
2.5217
2.5217
2.5153
2.5113
2.5121
2.5209
2.5233
2.5258
2.5258
2.5242
2.5185
2.5137
2.5129
2.5137
2.5250
2.5282
2.5274
2.5258
2.5258
2.5193
2.5225
2.5258
2.5242
2.5242
2.5306
2.5274
2.5242
2.5217
2.5217
2.5290
2.5322
2.5225
2.5298
2.5266
2.5217
2.5201
2.5105
2.5121
2.5185
2.5314
2.5290
2.5306
2.5274
2.5209
2.5193
2.5217
2.5290
2.5298
2.5346
2.5362
2.5306
2.5298
2.5274
2.5225
2.5266
2.5306
2.5306
2.5314
2.5298
2.5266
2.5242
2.5233
2.5233
2.5169
2.5378
2.5322
2.5322
2.5322
2.5225
2.5233
2.5201
2.5209
2.5314
2.5322
2.5354
2.5362
2.5290
2.5233
2.5266
2.5306
2.5330
2.5427
2.5370
2.5403
2.5387
2.5362
2.5338
2.5322
2.5354
2.5354
2.5395
2.5378
2.5403
2.5346
2.5322
2.5330
2.5346
2.5387
2.5411
2.5370
2.5362
2.5387
2.5338
2.5346
2.5314
2.5378
2.5459
2.5419
2.5451
2.5387
2.5314
2.5338
2.5354
2.5370
2.5395
2.5419
2.5451
2.5395
2.5338
2.5306
2.5354
2.5395
2.5419
2.5419
2.5378
2.5387
2.5362
2.5314
2.5322
2.5370
2.5395
2.5403
2.5403
2.5411
2.5419
2.5338
2.5330
2.5346
2.5370
2.5362
2.5411
2.5395
2.5403
2.5338
2.5298
2.5282
2.5274
2.5290
2.5290
2.5330
2.5362
2.5201
2.5217
2.5161
2.5169
2.5266
2.5298
2.5322
2.5298
2.5266
2.5169
2.5185
2.5217
2.5169
2.5242
2.5225
2.5201
2.5201
2.5129
2.5088
2.5080
2.5056
2.5080
2.5177
2.5177
2.5153
2.5161
2.5016
2.5072
2.5121
2.5137
2.5185
2.5209
2.5177
2.5153
2.5080
2.5064
2.5032
2.5096
2.5129
2.5153
2.5137
2.5064
2.5048
2.4992
2.4960
2.5024
2.5032
2.5072
2.5064
2.5048
2.4984
2.4960
2.4919
2.4919
2.4968
2.5088
2.5105
2.5105
2.5105
2.5048
2.4992
2.5024
2.5105
2.5080
2.5121
2.5137
2.5088
2.5048
2.5032
2.4992
2.5048
2.5032
2.5064
2.5072
2.5096
2.5056
2.5024
2.4960
2.4984
2.5000
2.5008
2.5105
2.5072
2.5056
2.5016
2.4823
2.4943
2.5008
2.5024
2.5088
2.5153
2.5048
2.5040
2.4992
2.5000
2.5032
2.5056
2.5193
2.5153
2.4984
2.5000
2.4992
2.4968
2.4984
2.5032
2.5088
2.5121
2.5088
2.5056
2.5048
2.5024
2.4992
2.5032
2.5064
2.5064
2.5096
2.5088
2.5032
2.5024
2.4968
2.4968
2.5064
2.5137
2.5096
2.5072
2.5032
2.5008
2.4960
2.4968
2.5000
2.5032
2.4968
2.5072
2.5080
2.5032
2.5008
2.5064
2.5072
2.5088
2.5137
2.5145
2.5145
2.5080
2.5088
2.5032
2.5056
2.5072
2.5096
2.5129
2.5121
2.5072
2.5040
2.5000
2.5032
2.5088
2.5072
2.5145
2.5121
2.5137
2.5008
2.5080
2.5024
2.5032
2.5040
2.5096
2.5080
2.5088
2.5048
2.5008
2.5024
2.5048
2.5096
2.5121
2.5137
2.5129
2.5072
2.4992
2.4992
2.5016
2.5064
2.5088
2.5096
2.5121
2.5048
2.5064
2.5008
2.5016
2.5064
2.5121
2.5177
2.5137
2.5145
2.5080
2.5032
2.5040
2.5040
2.5105
2.5137
2.5137
2.5040
2.5064
2.5008
2.4943
2.5008
2.5096
2.5072
2.5145
2.5032
2.5064
2.5000
2.5008
2.5000
2.5048
2.5064
2.5113
2.5113
2.5121
2.5080
2.5048
2.5000
2.5040
2.5121
2.5113
2.5121
2.5080
2.5048
2.4992
2.4984
2.5040
2.5137
2.5121
2.5153
2.5056
2.5153
2.5072
2.5008
2.5040
2.5129
2.5113
2.5177
2.5137
2.5129
2.5105
2.5048
2.5024
2.5032
2.5072
2.5137
2.5064
2.5096
2.5064
2.5000
2.4968
2.5032
2.5024
2.5072
2.5121
2.5113
2.5048
2.5064
2.5016
2.5016
2.5113
2.5113
2.5185
2.5137
2.5121
2.5080
2.5024
2.5040
2.5048
2.5096
2.5137
2.5169
2.5105
2.5072
2.5064
2.5048
2.5105
2.5121
2.5161
2.5129
2.5113
2.5137
2.5072
2.5040
2.5072
2.5048
2.5088
2.5201
2.5145
2.5137
2.5064
2.5024
2.5105
2.5080
2.5080
2.5153
2.5113
2.5072
2.5080
2.5040
2.5040
2.5032
2.5032
2.5096
2.5113
2.5113
2.5096
2.5064
2.5040
2.5024
2.5064
2.5113
2.5113
2.5129
2.5121
2.5088
2.5032
2.4919
2.5088
2.5137
2.5129
2.5145
2.5161
2.5113
2.5121
2.5088
2.5080
2.5121
2.5129
2.5137
2.5105
2.5088
2.5072
2.5000
2.4992
2.5064
2.5121
2.5153
2.5161
2.5185
2.5113
2.5088
2.5072
2.5056
2.5121
2.5153
2.5169
2.5145
2.5072
2.5024
2.5000
2.5032
2.5032
2.5121
2.5137
2.5145
2.5129
2.5105
2.5088
2.5064
2.5088
2.5121
2.5145
2.5137
2.5121
2.5121
2.5088
2.5048
2.5048
2.5129
2.5137
2.5137
2.5105
2.5121
2.5056
2.5016
2.5064
2.5056
2.5105
2.5145
2.5177
2.5169
2.5105
2.5064
2.5064
2.5064
2.5129
2.5153
2.5145
2.5129
2.5209
2.5105
2.5048
2.5105
2.5137
2.5161
2.5185
2.5153
2.5113
2.5088
2.5000
2.5072
2.5080
2.5137
2.5153
2.5161
2.5080
2.5153
2.5024
2.5048
2.5032
2.5105
2.5121
2.5096
2.5072
2.5072
2.5000
2.5016
2.5040
2.5064
2.5161
2.5153
2.5193
2.5145
2.5129
2.5088
2.4992
2.5096
2.5105
2.5145
2.5169
2.5137
2.5113
2.5072
2.5088
2.5088
2.5137
2.5137
2.5193
2.5169
2.5105
2.5105
2.5072
2.5072
2.5088
2.5105
2.5113
2.5113
2.5113
2.5048
2.5024
2.5072
2.5113
2.5105
2.5145
2.5145
2.5121
2.5113
2.5080
2.5032
2.5080
2.5161
2.5080
2.5185
2.5169
2.5121
2.5105
2.5048
2.5088
2.5145
2.5161
2.5177
2.5185
2.5129
2.5088
2.5040
2.5024
2.5105
2.5145
2.5217
2.5177
2.5129
2.5129
2.5064
2.5032
2.5000
2.5040
2.5145
2.5137
2.5129
2.5113
2.5032
2.5040
2.5048
2.5137
2.5145
2.5177
2.5145
2.5129
2.5088
2.5072
2.5088
2.5088
2.5113
2.5137
2.5137
2.5129
2.5048
2.5064
2.5008
2.5040
2.5072
2.5064
2.5088
2.5072
2.5080
2.5048
2.5040
2.5048
2.5113
2.5177
2.5185
2.5193
2.5145
2.5096
2.5032
2.5088
2.5121
2.5137
2.5185
2.5153
2.5129
2.5137
2.5113
2.5169
2.5080
2.5153
2.5185
2.5153
2.5209
2.5145
2.5048
2.5032
2.5024
2.5088
2.5161
2.5169
2.5193
2.5153
2.5137
2.5096
2.5056
2.5105
2.5096
2.5193
2.5145
2.5217
2.5121
2.5088
2.5088
2.5153
2.5225
2.5250
2.5233
2.5137
2.5193
2.5193
2.5088
2.5185
2.5145
2.5242
2.5298
2.5306
2.5306
2.5185
2.5129
2.5153
2.5185
2.5217
2.5250
2.5274
2.5242
2.5161
2.5145
2.5145
2.5193
2.5201
2.5242
2.5225
2.5177
2.5169
2.5177
2.5105
2.5121
2.5185
2.5193
2.5209
2.5185
2.5153
2.5056
2.5088
2.5096
2.5105
2.5161
2.5161
2.5169
2.5096
2.5121
2.5040
2.5048
2.5121
2.5129
2.5258
2.5201
2.5185
2.5129
2.5088
2.5080
2.5064
2.5105
2.5113
2.5137
2.5121
2.5129
2.5056
2.5024
2.5016
2.5072
2.5088
2.5161
2.5040
2.5145
2.5072
2.5072
2.5064
2.5105
2.5121
2.5088
2.5209
2.5177
2.5185
2.5105
2.5072
2.5064
2.5105
2.5137
2.5209
2.5153
2.5177
2.5080
2.5032
2.5056
2.5121
2.5145
2.5153
2.5177
2.5169
2.5145
2.5161
2.5105
2.5153
2.5088
2.5064
2.5169
2.5145
2.5096
2.5064
2.5056
2.5024
2.4984
2.5088
2.5145
2.5113
2.5080
2.5056
2.5008
2.5032
2.5105
2.5137
2.5201
2.5201
2.5201
2.5169
2.5121
2.5121
2.5088
2.5153
2.5217
2.5250
2.5217
2.5177
2.5113
2.5177
2.5177
2.5258
2.5314
2.5387
2.5338
2.5330
2.5306
2.5282
2.5266
2.5314
2.5435
2.5467
2.5483
2.5499
2.5403
2.5370
2.5354
2.5378
2.5403
2.5395
2.5330
2.5330
2.5209
2.5096
2.5056
2.5064
2.5072
2.5064
2.5088
2.5016
2.5024
2.5024
2.4943
2.5008
2.5040
2.5105
2.5080
2.4935
2.4960
2.4903
2.4863
2.4790
2.4847
2.4911
2.5016
2.5032
2.5024
2.5016
2.4992
2.4984
2.5064
2.5137
2.5121
2.5177
2.5169
2.5145
2.5137
2.5096
2.5121
2.5129
2.5209
2.5201
2.5225
2.5201
2.5161
2.5185
2.5169
2.5161
2.5129
2.5201
2.5209
2.5193
2.5201
2.5153
2.5080
2.5121
2.5201
2.5185
2.5209
2.5185
2.5177
2.5113
2.5080
2.5145
2.5274
2.5177
2.5201
2.5185
2.5177
2.5105
2.5064
2.5064
2.5145
2.5209
2.5225
2.5209
2.5201
2.5185
2.5056
2.5088
2.5113
2.5153
2.5137
2.5161
2.5185
2.5185
2.5121
2.5129
2.5177
2.5177
2.5250
2.5217
2.5201
2.5225
2.5121
2.5088
2.5113
2.5161
2.5177
2.5225
2.5185
2.5250
2.5169
2.5145
2.5105
2.5145
2.5185
2.5161
2.5209
2.5193
2.5169
2.5161
2.5121
2.5169
2.5201
2.5258
2.5250
2.5282
2.5258
2.5185
2.5161
2.5129
2.5153
2.5242
2.5209
2.5225
2.5250
2.5258
2.5242
2.5177
2.5209
2.5169
2.5387
2.5274
2.5250
2.5201
2.5193
2.5105
2.5113
2.5185
2.5217
2.5250
2.5274
2.5266
2.5201
2.5185
2.5177
2.5185
2.5242
2.5274
2.5290
2.5282
2.5298
2.5193
2.5169
2.5193
2.5250
2.5258
2.5306
2.5314
2.5266
2.5250
2.5177
2.5250
2.5242
2.5250
2.5290
2.5274
2.5282
2.5274
2.5209
2.5193
2.5209
2.5266
2.5274
2.5282
2.5282
2.5242
2.5217
2.5201
2.5185
2.5266
2.5338
2.5314
2.5306
2.5282
2.5233
2.5209
2.5185
2.5242
2.5290
2.5346
2.5330
2.5298
2.5250
2.5217
2.5233
2.5233
2.5298
2.5330
2.5314
2.5306
2.5354
2.5274
2.5185
2.5266
2.5314
2.5395
2.5387
2.5370
2.5362
2.5362
2.5282
2.5314
2.5338
2.5395
2.5395
2.5387
2.5338
2.5322
2.5338
2.5282
2.5274
2.5314
2.5370
2.5362
2.5387
2.5338
2.5290
2.5258
2.5290
2.5338
2.5395
2.5435
2.5427
2.5378
2.5483
2.5282
2.5242
2.5387
2.5443
2.5499
2.5475
2.5403
2.5411
2.5378
2.5290
2.5362
2.5395
2.5419
2.5435
2.5419
2.5403
2.5314
2.5314
2.5370
2.5427
2.5435
2.5491
2.5459
2.5427
2.5387
2.5322
2.5354
2.5475
2.5451
2.5475
2.5467
2.5451
2.5346
2.5330
2.5314
2.5330
2.5395
2.5419
2.5419
2.5427
2.5403
2.5306
2.5258
2.5258
2.5306
2.5443
2.5338
2.5354
2.5322
2.5242
2.5233
2.5193
2.5225
2.5306
2.5298
2.5306
2.5185
2.5137
2.5137
2.5137
2.5201
2.5153
2.5242
2.5217
2.5169
2.5145
2.5105
2.5080
2.5121
2.5129
2.5185
2.5185
2.5217
2.5185
2.5153
2.5121
2.5080
2.5105
2.5209
2.5177
2.5153
2.5161
2.5137
2.5088
2.5024
2.5000
2.5096
2.5153
2.5129
2.5250
2.5032
2.5105
2.4968
2.5056
2.5032
2.5040
2.5096
2.5096
2.5072
2.5024
2.4943
2.4976
2.5064
2.5072
2.5113
2.5048
2.5096
2.5016
2.5016
2.4960
2.4984
2.5032
2.5113
2.5096
2.5105
2.5064
2.5032
2.4984
2.5072
2.5032
2.5088
2.4984
2.5145
2.5169
2.4976
2.4976
2.5016
2.5072
2.5129
2.5145
2.5145
2.5072
2.5056
2.4992
2.4984
2.4960
2.5032
2.5032
2.5048
2.5113
2.4984
2.4968
2.4968
2.4984
2.5080
2.5096
2.5080
2.5113
2.5072
2.5040
2.5016
2.5032
2.5064
2.5105
2.5096
2.5121
2.5105
2.5105
2.5040
2.5008
2.5056
2.5016
2.5137
2.5064
2.5088
2.5016
2.4984
2.5024
2.5024
2.5032
2.5096
2.5137
2.5145
2.5153
2.5088
2.5072
2.5032
2.5080
2.5088
2.5121
2.5137
2.5153
2.5105
2.5064
2.5048
2.5048
2.5072
2.5080
2.5096
2.5064
2.4976
2.5032
2.4895
2.5008
2.5096
2.5072
2.5105
2.5105
2.5105
2.5072
2.5032
2.4968
2.5000
2.5129
2.5169
2.5161
2.5145
2.5080
2.5072
2.5000
2.5056
2.5072
2.5096
2.5113
2.5096
2.5032
2.4976
2.5024
2.5008
2.5032
2.5105
2.5121
2.5129
2.5064
2.5064
2.5016
2.5056
2.5072
2.5056
2.5137
2.5145
2.5137
2.5088
2.5072
2.5105
2.5048
2.5096
2.5121
2.5105
2.5121
2.5064
2.5080
2.5016
2.5016
2.5080
2.5105
2.5129
2.5137
2.5072
2.5072
2.5008
2.5064
2.5056
2.5088
2.5129
2.5145
2.5121
2.5072
2.5032
2.5080
2.5008
2.5064
2.5088
2.5105
2.5113
2.5096
2.5145
2.5064
2.5056
2.5032
2.5096
2.5145
2.5137
2.5129
2.5056
2.5032
2.5048
2.5072
2.5137
2.5129
2.5145
2.5129
2.5145
2.5072
2.5040
2.5056
2.5048
2.5105
2.5153
2.5153
2.5113
2.5121
2.5032
2.5040
2.5064
2.5113
2.5185
2.5096
2.5121
2.5064
2.5056
2.5040
2.5008
2.5080
2.5113
2.5161
2.5113
2.5113
2.5032
2.5048
2.5048
2.5121
2.5121
2.5113
2.5088
2.5032
2.5056
2.4984
2.5032
2.5072
2.5113
2.5201
2.5177
2.5137
2.5113
2.5048
2.5088
2.5072
2.5113
2.5137
2.5153
2.5153
2.5105
2.5145
2.5048
2.5040
2.5088
2.5088
2.5129
2.5088
2.5193
2.5048
2.4960
2.4935
2.4992
2.5000
2.5088
2.5105
2.5145
2.5032
2.4984
2.5032
2.5064
2.5121
2.5137
2.5137
2.5129
2.5113
2.5056
2.5056
2.5008
2.5105
2.5169
2.5185
2.5193
2.5169
2.5088
2.5072
2.5048
2.5072
2.5072
2.5008
2.5121
2.5113
2.5000
2.5008
2.4976
2.5040
2.5072
2.5080
2.5145
2.5153
2.5121
2.5088
2.5064
2.5072
2.5113
2.5161
2.5185
2.5169
2.5145
2.5080
2.5072
2.5096
2.5121
2.5137
2.5145
2.5153
2.5161
2.5064
2.5040
2.5024
2.5032
2.5105
2.5137
2.5169
2.5161
2.5048
2.5056
2.5032
2.5040
2.5008
2.5080
2.5105
2.5153
2.5088
2.5016
2.5024
2.5064
2.5113
2.5113
2.5129
2.5153
2.5121
2.5121
2.5048
2.5048
2.5056
2.5080
2.5080
2.5113
2.5145
2.5088
2.5032
2.5000
2.4992
2.5032
2.5153
2.5129
2.5121
2.5080
2.5056
2.5048
2.4903
2.5064
2.5137
2.5201
2.5177
2.5161
2.5121
2.5088
2.5088
2.5129
2.5145
2.5161
2.5145
2.5153
2.5105
2.5088
2.5080
2.5080
2.5113
2.5153
2.5177
2.5185
2.5105
2.5088
2.5088
2.5129
2.5096
2.5129
2.5185
2.5145
2.5169
2.5088
2.5064
2.5024
2.5016
2.5105
2.5105
2.5105
2.5137
2.5137
2.5088
2.5048
2.5056
2.5113
2.5209
2.5193
2.5177
2.5096
2.5072
2.5072
2.5056
2.5096
2.5169
2.5161
2.5177
2.5153
2.5113
2.5080
2.5121
2.5121
2.5145
2.5169
2.5161
2.5145
2.5121
2.5072
2.5064
2.5072
2.5137
2.5072
2.5161
2.5137
2.5088
2.5064
2.5016
2.5016
2.5048
2.5113
2.5096
2.5145
2.5129
2.5088
2.5032
2.5048
2.5072
2.5129
2.5233
2.5177
2.5105
2.5113
2.5088
2.5064
2.5105
2.5137
2.5177
2.5169
2.5201
2.5153
2.5145
2.5080
2.5088
2.5145
2.5137
2.5177
2.5177
2.5113
2.5113
2.5064
2.5105
2.5048
2.5121
2.5169
2.5201
2.5209
2.5121
2.5105
2.5024
2.5064
2.5105
2.5105
2.5121
2.5169
2.5105
2.5064
2.4992
2.4984
2.5072
2.5105
2.5185
2.5201
2.5185
2.5137
2.5080
2.5105
2.5137
2.5242
2.5217
2.5217
2.5193
2.5177
2.5113
2.5113
2.5145
2.5137
2.5177
2.5161
2.5185
2.5145
2.5153
2.5105
2.5080
2.5153
2.5201
2.5209
2.5242
2.5209
2.5153
2.5169
2.5105
2.5105
2.5096
2.5193
2.5233
2.5193
2.5169
2.5137
2.5088
2.5096
2.5153
2.5209
2.5217
2.5242
2.5225
2.5201
2.5258
2.5113
2.5161
2.5169
2.5209
2.5193
2.5169
2.5088
2.5121
2.5088
2.5105
2.5169
2.5258
2.5217
2.5193
2.5185
2.5161
2.5105
2.5129
2.5177
2.5153
2.5193
2.5193
2.5145
2.5121
2.5096
2.5096
2.5080
2.5105
2.5137
2.5137
2.5145
2.5088
2.5048
2.5032
2.5008
2.5129
2.5105
2.5129
2.5153
2.5105
2.5145
2.5088
2.5064
2.5088
2.5121
2.5161
2.5145
2.5145
2.5088
2.5032
2.5024
2.5072
2.5088
2.5145
2.5169
2.5121
2.5048
2.5064
2.5105
2.5048
2.5129
2.5096
2.5121
2.5088
2.5064
2.5048
2.5048
2.5016
2.5072
2.5072
2.5129
2.5161
2.5105
2.5072
2.5040
2.5016
2.5048
2.5153
2.5161
2.5153
2.5129
2.5072
2.5032
2.5040
2.5088
2.5105
2.5217
2.5225
2.5137
2.5129
2.5121
2.5088
2.5048
2.5088
2.5121
2.5105
2.5137
2.5113
2.5072
2.5016
2.5048
2.5096
2.5161
2.5217
2.5217
2.5201
2.5233
2.5113
2.5185
2.5113
2.5169
2.5233
2.5266
2.5250
2.5225
2.5233
2.5193
2.5161
2.5193
2.5306
2.5370
2.5387
2.5378
2.5370
2.5346
2.5314
2.5370
2.5403
2.5451
2.5459
2.5387
2.5330
2.5298
2.5169
2.5161
2.5193
2.5153
2.5137
2.5137
2.5048
2.4992
2.4935
2.5016
2.5056
2.5056
2.5000
2.5129
2.5024
2.5000
2.4976
2.4943
2.4960
2.4968
2.4943
2.4960
2.4960
2.4911
2.4887
2.4887
2.4919
2.5024
2.5088
2.5137
2.5113
2.5096
2.5064
2.5008
2.5032
2.5048
2.5096
2.5145
2.5169
2.5137
2.5105
2.5064
2.5056
2.5113
2.5137
2.5169
2.5306
2.5145
2.5121
2.5072
2.5016
2.5024
2.5056
2.5129
2.5153
2.5137
2.5129
2.5056
2.5137
2.5113
2.5145
2.5185
2.5209
2.5258
2.5201
2.5169
2.5113
2.5145
2.5113
2.5169
2.5233
2.5242
2.5105
2.5217
2.5032
2.5080
2.5056
2.5145
2.5193
2.5193
2.5233
2.5161
2.5137
2.5153
2.5153
2.5129
2.5217
2.5242
2.5209
2.5201
2.5145
2.5096
2.5137
2.5137
2.5209
2.5217
2.5258
2.5185
2.5185
2.5137
2.5121
2.5177
2.5113
2.5258
2.5225
2.5274
2.5169
2.5161
2.5105
2.5129
2.5169
2.5193
2.5209
2.5217
2.5225
2.5193
2.5137
2.5129
2.5137
2.5201
2.5258
2.5282
2.5250
2.5217
2.5193
2.5169
2.5129
2.5242
2.5217
2.5274
2.5153
2.5250
2.5201
2.5161
2.5137
2.5145
2.5225
2.5258
2.5225
2.5185
2.5201
2.5185
2.5129
2.5185
2.5250
2.5250
2.5274
2.5217
2.5209
2.5169
2.5145
2.5153
2.5217
2.5266
2.5266
2.5258
2.5258
2.5225
2.5185
2.5209
2.5209
2.5217
2.5274
2.5306
2.5258
2.5121
2.5072
2.5121
2.5105
2.5201
2.5258
2.5306
2.5274
2.5209
2.5153
2.5161
2.5354
2.5274
2.5250
2.5298
2.5274
2.5274
2.5242
2.5209
2.5169
2.5225
2.5258
2.5290
2.5290
2.5233
2.5209
2.5177
2.5209
2.5250
2.5282
2.5346
2.5322
2.5330
2.5298
2.5258
2.5209
2.5209
2.5346
2.5378
2.5354
2.5378
2.5370
2.5346
2.5258
2.5274
2.5306
2.5370
2.5370
2.5370
2.5346
2.5346
2.5298
2.5338
2.5201
2.5338
2.5346
2.5387
2.5387
2.5330
2.5314
2.5290
2.5290
2.5370
2.5395
2.5435
2.5411
2.5362
2.5298
2.5282
2.5185
2.5395
2.5435
2.5459
2.5491
2.5435
2.5403
2.5314
2.5322
2.5330
2.5427
2.5443
2.5427
2.5451
2.5387
2.5330
2.5314
2.5322
2.5403
2.5483
2.5443
2.5451
2.5395
2.5378
2.5314
2.5338
2.5346
2.5419
2.5378
2.5370
2.5346
2.5298
2.5290
2.5282
2.5306
2.5370
2.5411
2.5435
2.5395
2.5403
2.5354
2.5362
2.5362
2.5387
2.5427
2.5378
2.5451
2.5403
2.5314
2.5290
2.5322
2.5314
2.5306
2.5322
2.5346
2.5338
2.5233
2.5185
2.5193
2.5233
2.5258
2.5282
2.5274
2.5233
2.5250
2.5169
2.5153
2.5129
2.5137
2.5185
2.5185
2.5177
2.5129
2.5105
2.5040
2.5048
2.5105
2.5105
2.5129
2.5169
2.5169
2.5177
2.5080
2.5064
2.5121
2.5169
2.5161
2.5185
2.5242
2.5145
2.5105
2.5080
2.5088
2.5096
2.5129
2.5137
2.5145
2.5113
2.5105
2.5024
2.5016
2.5056
2.5088
2.5096
2.5105
2.5105
2.5048
2.4992
2.4943
2.5040
2.5088
2.5105
2.5096
2.5113
2.5080
2.5000
2.4968
2.4887
2.5040
2.5056
2.5113
2.5113
2.5056
2.4984
2.4984
2.4855
2.4927
2.5032
2.5064
2.5129
2.5048
2.5016
2.4943
2.5032
2.5000
2.5048
2.5072
2.5113
2.5056
2.5040
2.5024
2.5016
2.5040
2.5040
2.5064
2.5056
2.5072
2.5056
2.5048
2.5008
2.5000
2.4935
2.5040
2.5008
2.5113
2.5064
2.5032
2.5016
2.5024
2.5040
2.5032
2.5072
2.5056
2.5048
2.5032
2.4943
2.4935
2.4976
2.5008
2.5088
2.5064
2.5064
2.5064
2.5040
2.5000
2.4895
2.5000
2.5040
2.5096
2.5145
2.5113
2.5016
2.4935
2.4984
2.5048
2.5056
2.5080
2.5105
2.5105
2.5048
2.5000
2.4951
2.4943
2.5056
2.5145
2.5121
2.5121
2.5096
2.5032
2.5040
2.5016
2.5032
2.5088
2.5072
2.5121
2.5121
2.5032
2.5024
2.4960
2.4992
2.5080
2.5113
2.5153
2.5121
2.5096
2.5008
2.4984
2.5024
2.5064
2.5088
2.5088
2.5064
2.5096
2.5072
2.4919
2.4734
2.5024
2.5064
2.5121
2.5145
2.5161
2.5072
2.5032
2.5008
2.5048
2.5113
2.5105
2.5153
2.5113
2.5048
2.4992
2.4960
2.4968
2.5080
2.5121
2.5153
2.5129
2.5121
2.5048
2.5032
2.5032
2.5040
2.5129
2.5169
2.5153
2.5153
2.5145
2.5056
2.5016
2.5080
2.5129
2.5145
2.5169
2.5177
2.5137
2.5056
2.4976
2.5056
2.5048
2.5088
2.5121
2.5161
2.5088
2.5048
2.5000
2.4992
2.5032
2.5129
2.5121
2.5153
2.5080
2.5048
2.5024
2.5040
2.5088
2.5056
2.5088
2.5121
2.5080
2.5072
2.5000
2.4895
2.5040
2.5048
2.5064
2.5080
2.5129
2.5088
2.5088
2.5032
2.5024
2.5040
2.5064
2.5113
2.5153
2.5137
2.5145
2.5088
2.5016
2.5024
2.5048
2.5096
2.5113
2.5096
2.5064
2.5048
2.5032
2.5064
2.5072
2.5088
2.5153
2.5145
2.5016
2.5080
2.4984
2.5016
2.5024
2.5072
2.5072
2.5113
2.5129
2.5113
2.5105
2.5024
2.5032
2.5096
2.5121
2.5121
2.5088
2.5121
2.5048
2.5056
2.5032
2.5064
2.4992
2.5153
2.5161
2.5161
2.5113
2.5113
2.5048
2.5088
2.5105
2.5137
2.5161
2.5105
2.5040
2.4960
2.4992
2.5008
2.5072
2.5121
2.5145
2.5113
2.5113
2.5080
2.5024
2.5000
2.5040
2.5096
2.5096
2.5080
2.5080
2.5024
2.5008
2.4976
2.5024
2.5113
2.5129
2.5137
2.5145
2.5113
2.5121
2.5016
2.5064
2.5105
2.5137
2.5096
2.5121
2.5096
2.5040
2.4992
2.4992
2.5016
2.5064
2.5137
2.5153
2.5105
2.5096
2.5048
2.5048
2.5113
2.5105
2.5153
2.5161
2.5113
2.5048
2.5056
2.5064
2.5121
2.5105
2.5193
2.5113
2.5161
2.5137
2.5080
2.5153
2.5056
2.5105
2.5113
2.5161
2.5185
2.5153
2.5088
2.5056
2.5064
2.5072
2.5080
2.5153
2.5161
2.5145
2.5145
2.5040
2.5032
2.5048
2.5105
2.5137
2.5145
2.5080
2.5105
2.5088
2.5040
2.5032
2.5056
2.5080
2.5113
2.5080
2.5129
2.5096
2.5024
2.5032
2.5088
2.5113
2.5153
2.5169
2.5153
2.5096
2.5072
2.5056
2.5040
2.5105
2.5161
2.5153
2.5193
2.5129
2.5056
2.5024
2.5056
2.5088
2.5177
2.5161
2.5193
2.5137
2.5072
2.5040
2.5064
2.5088
2.5121
2.5161
2.5129
2.5161
2.5137
2.5113
2.5080
2.5064
2.5096
2.5137
2.5145
2.5137
2.5121
2.5064
2.5056
2.5072
2.5080
2.5129
2.5137
2.5161
2.5121
2.5056
2.5080
2.5000
2.5064
2.5064
2.5161
2.5121
2.5096
2.5096
2.5088
2.5048
2.5032
2.5096
2.5161
2.5096
2.5145
2.5088
2.5080
2.5040
2.5185
2.5072
2.5121
2.5153
2.5193
2.5161
2.5056
2.4992
2.5032
2.5072
2.5113
2.5121
2.5137
2.5161
2.5121
2.5225
2.5000
2.5040
2.5072
2.5129
2.5145
2.5169
2.5145
2.5129
2.4976
2.5016
2.5000
2.5177
2.5201
2.5217
2.5161
2.5137
2.5105
2.5105
2.5153
2.5137
2.5153
2.5161
2.5169
2.5105
2.5088
2.5040
2.5032
2.5064
2.5080
2.5105
2.5088
2.5080
2.5040
2.5008
2.5008
2.5048
2.5153
2.5153
2.5233
2.5137
2.5040
2.4927
2.5008
2.5072
2.5145
2.5129
2.5201
2.5153
2.5137
2.5129
2.5145
2.5145
2.5088
2.5209
2.5201
2.5209
2.5201
2.5113
2.5056
2.5016
2.5072
2.5048
2.5145
2.5113
2.5193
2.5105
2.5064
2.5145
2.5217
2.5121
2.5137
2.5177
2.5177
2.5137
2.5113
2.5088
2.5096
2.5129
2.5185
2.5169
2.5185
2.5153
2.5153
2.5113
2.5121
2.5096
2.5153
2.5201
2.5145
2.5169
2.5088
2.5056
2.5072
2.5008
2.5048
2.5105
2.5145
2.5113
2.5096
2.5048
2.5056
2.5016
2.5056
2.5080
2.5113
2.5056
2.5064
2.5048
2.4984
2.4992
2.5016
2.5088
2.5153
2.5088
2.5105
2.5016
2.5000
2.4951
2.5016
2.5008
2.5024
2.5016
2.5056
2.5016
2.5016
2.4976
2.4968
2.5000
2.5040
2.5080
2.5064
2.5056
2.5032
2.5000
2.4887
2.4984
2.5064
2.5121
2.5113
2.5121
2.5040
2.5000
2.5008
2.5016
2.5080
2.5137
2.5145
2.5137
2.5080
2.5024
2.5000
2.5008
2.5032
2.5096
2.5056
2.5072
2.5064
2.4992
2.4960
2.4935
2.5000
2.5056
2.5096
2.5096
2.5096
2.5096
2.5016
2.5016
2.5064
2.5096
2.5153
2.5121
2.5137
2.5113
2.5056
2.5000
2.5072
2.5121
2.5177
2.5177
2.5169
2.5153
2.5129
2.5048
2.5040
2.5145
2.5177
2.5274
2.5274
2.5193
2.5225
2.5193
2.5225
2.5282
2.5354
2.5427
2.5491
2.5459
2.5443
2.5387
2.5322
2.5306
2.5362
2.5427
2.5378
2.5387
2.5370
2.5242
2.5153
2.5096
2.5105
2.5121
2.5113
2.5145
2.5080
2.5048
2.5000
2.4992
2.4943
2.4968
2.5072
2.5016
2.5008
2.4960
2.4879
2.4863
2.4863
2.4887
2.4903
2.4911
2.4935
2.4951
2.4943
2.4943
2.4968
2.4976
2.5145
2.5056
2.5088
2.5064
2.5064
2.5016
2.4951
2.5000
2.5040
2.5177
2.5161
2.5153
2.5096
2.5040
2.5048
2.5096
2.5096
2.5153
2.5185
2.5153
2.5153
2.5113
2.5080
2.5072
2.5137
2.5177
2.5185
2.5169
2.5177
2.5169
2.5072
2.5113
2.5105
2.5113
2.5169
2.5177
2.5185
2.5153
2.5080
2.5056
2.5064
2.5129
2.5177
2.5217
2.5201
2.5177
2.5145
2.5105
2.5096
2.5113
2.5121
2.5145
2.5072
2.5129
2.5153
2.5080
2.5072
2.5064
2.5121
2.5153
2.5153
2.5177
2.5113
2.5113
2.5072
2.5105
2.5129
2.5193
2.5209
2.5193
2.5201
2.5137
2.5137
2.5080
2.5161
2.5209
2.5250
2.5250
2.5266
2.5193
2.5129
2.5105
2.5121
2.5105
2.5242
2.5209
2.5201
2.5193
2.5153
2.5113
2.5113
2.5177
2.5177
2.5185
2.5225
2.5088
2.5113
2.5113
2.5064
2.5137
2.5185
2.5201
2.5193
2.5185
2.5169
2.5129
2.5088
2.5145
2.5169
2.5242
2.5258
2.5217
2.5290
2.5153
2.5145
2.5185
2.5242
2.5282
2.5298
2.5282
2.5233
2.5217
2.5185
2.5193
2.5258
2.5233
2.5362
2.5266
2.5274
2.5201
2.5217
2.5121
2.5193
2.5185
2.5217
2.5258
2.5274
2.5250
2.5145
2.5137
2.5177
2.5233
2.5250
2.5403
2.5266
2.5250
2.5129
2.5121
2.5113
2.5145
2.5177
2.5225
2.5233
2.5250
2.5266
2.5233
2.5217
2.5209
2.5250
2.5282
2.5274
2.5225
2.5258
2.5193
2.5129
2.5169
2.5233
2.5298
2.5306
2.5314
2.5298
2.5250
2.5217
2.5217
2.5290
2.5290
2.5322
2.5338
2.5330
2.5298
2.5217
2.5250
2.5258
2.5314
2.5354
2.5330
2.5298
2.5322
2.5298
2.5282
2.5266
2.5346
2.5338
2.5378
2.5378
2.5362
2.5330
2.5233
2.5290
2.5290
2.5330
2.5395
2.5370
2.5387
2.5330
2.5314
2.5290
2.5330
2.5395
2.5403
2.5411
2.5403
2.5387
2.5354
2.5322
2.5330
2.5314
2.5403
2.5419
2.5419
2.5387
2.5306
2.5306
2.5314
2.5346
2.5499
2.5427
2.5467
2.5451
2.5395
2.5330
2.5362
2.5338
2.5378
2.5370
2.5403
2.5411
2.5346
2.5338
2.5330
2.5250
2.5338
2.5354
2.5403
2.5427
2.5395
2.5370
2.5250
2.5282
2.5314
2.5322
2.5233
2.5354
2.5346
2.5290
2.5274
2.5217
2.5250
2.5242
2.5306
2.5346
2.5274
2.5274
2.5096
2.5177
2.5137
2.5209
2.5225
2.5258
2.5209
2.5209
2.5161
2.5040
2.5088
2.5153
2.5177
2.5161
2.5209
2.5145
2.5088
2.5040
2.5032
2.5032
2.5024
2.5072
2.5105
2.5113
2.5161
2.5016
2.4984
2.5008
2.5032
2.5064
2.5096
2.5121
2.5105
2.5024
2.4984
2.4992
2.4992
2.5072
2.5105
2.5096
2.5064
2.5080
2.4976
2.4976
2.4968
2.5000
2.5000
2.5024
2.5032
2.5040
2.5000
2.4968
2.4943
2.4992
2.5048
2.5072
2.5072
2.5048
2.5113
2.4960
2.4968
2.4976
2.5008
2.5064
2.5040
2.5048
2.4960
2.4943
2.4951
2.4919
2.4984
2.5064
2.5088
2.5096
2.5105
2.5008
2.4984
2.5016
2.5048
2.5113
2.5137
2.5113
2.5113
2.5056
2.5008
2.5056
2.4992
2.5056
2.5096
2.5064
2.5048
2.5080
2.5008
2.5000
2.4968
2.4976
2.5032
2.5008
2.5016
2.5032
2.4992
2.5072
2.4911
2.5016
2.5040
2.5113
2.5088
2.5064
2.5048
2.5008
2.4992
2.5056
2.5129
2.5137
2.5161
2.5113
2.5048
2.5113
2.5048
2.5008
2.5024
2.5072
2.5080
2.5113
2.5105
2.5008
2.4976
2.4984
2.5048
2.5072
2.5080
2.5088
2.5056
2.5024
2.4968
2.4943
2.5000
2.5016
2.5113
2.5129
2.5105
2.5080
2.5024
2.5024
2.4871
2.5048
2.5113
2.5113
2.5105
2.5080
2.4951
2.5008
2.4960
2.5040
2.5088
2.5121
2.5129
2.5129
2.5056
2.5048
2.4976
2.5016
2.5088
2.5145
2.5121
2.5113
2.5064
2.5008
2.4951
2.5008
2.5008
2.5096
2.5137
2.5064
2.5016
2.4935
2.5088
2.4976
2.5088
2.5072
2.5096
2.5113
2.5048
2.5064
2.5024
2.5016
2.5032
2.5024
2.5072
2.5121
2.5088
2.5072
2.5000
2.5072
2.5072
2.5105
2.5161
2.5137
2.5096
2.5137
2.5080
2.5016
2.5105
2.5072
2.5145
2.5161
2.5153
2.5121
2.5096
2.5040
2.5032
2.5024
2.5064
2.5080
2.5121
2.5121
2.5105
2.5056
2.5032
2.5056
2.5032
2.5113
2.5113
2.5105
2.5096
2.5080
2.5016
2.5032
2.5064
2.5096
2.5080
2.5096
2.5113
2.5064
2.5000
2.5000
2.5056
2.5088
2.5113
2.5113
2.5105
2.5105
2.5056
2.4992
2.5032
2.5056
2.5129
2.5137
2.5024
2.5113
2.5080
2.5040
2.4951
2.5040
2.5048
2.5129
2.5105
2.5080
2.5056
2.5024
2.4984
2.4992
2.5113
2.5145
2.5080
2.5177
2.5113
2.5080
2.5000
2.5024
2.5056
2.5113
2.5129
2.5096
2.5032
2.5000
2.4951
2.4951
2.4976
2.5048
2.5096
2.5096
2.5088
2.5048
2.5064
2.5000
2.5056
2.5105
2.5169
2.5161
2.5153
2.5129
2.5080
2.5048
2.5024
2.5072
2.5121
2.5096
2.5105
2.5072
2.5080
2.5024
2.5064
2.5072
2.5096
2.5113
2.5129
2.5121
2.5080
2.4992
2.5000
2.4992
2.5056
2.5096
2.5096
2.5096
2.5064
2.5064
2.5032
2.5032
2.5040
2.5137
2.5105
2.5121
2.5096
2.5096
2.5024
2.5008
2.5016
2.5064
2.5121
2.5113
2.5153
2.5064
2.5000
2.5016
2.5016
2.5056
2.5121
2.5161
2.5145
2.5105
2.5040
2.5040
2.5000
2.5080
2.5153
2.5217
2.5233
2.5169
2.5056
2.5056
2.5048
2.5080
2.5072
2.5121
2.5153
2.5105
2.5064
2.5080
2.5072
2.5040
2.5080
2.5113
2.5169
2.5129
2.5072
2.5048
2.5040
2.5024
2.5048
2.5096
2.5153
2.5121
2.5064
2.5056
2.4960
2.5048
2.5048
2.5121
2.5129
2.5105
2.5088
2.5048
2.5056
2.5016
2.5040
2.5121
2.5201
2.5145
2.5113
2.5072
2.5088
2.5048
2.5040
2.5129
2.5161
2.5161
2.5177
2.5145
2.5080
2.5040
2.5048
2.5048
2.5096
2.5145
