ECG
0.405
0.4099
0.4099
0.415
0.415
0.415
0.4199
0.425
0.4299
0.4299
0.425
0.425
0.415
0.4099
0.405
0.3999
0.395
0.3898
0.3898
0.3847
0.3798
0.3747
0.3747
0.3747
0.3747
0.3798
0.3798
0.3798
0.3847
0.3847
0.3847
0.3847
0.3847
0.3847
0.3847
0.3847
0.3847
0.3847
0.3798
0.3798
0.3747
0.3747
0.3798
0.3847
0.3898
0.3898
0.395
0.395
0.395
0.3999
0.3999
0.3999
0.405
0.405
0.405
0.4099
0.415
0.425
0.425
0.4299
0.4299
0.435
0.435
0.4397
0.4397
0.4299
0.4099
0.405
0.3999
0.3999
0.3999
0.405
0.3999
0.405
0.435
0.51
0.6251
0.6998
0.66
0.53
0.425
0.3847
0.3798
0.3798
0.3747
0.3747
0.3698
0.3698
0.3698
0.3747
0.3747
0.3747
0.3798
0.3847
0.3847
0.3898
0.3898
0.395
0.3999
0.405
0.405
0.405
0.4099
0.415
0.425
0.4299
0.435
0.4397
0.4397
0.4397
0.4446
0.4397
0.4397
0.4397
0.435
0.435
0.4299
0.4299
0.425
0.415
0.405
0.395
0.3898
0.3898
0.3847
0.3798
0.3747
0.3747
0.3747
0.3747
0.3798
0.3847
0.3847
0.3847
0.3847
0.3847
0.3847
0.3847
0.3847
0.3847
0.3847
0.3847
0.3847
0.3798
0.3798
0.3747
0.3747
0.3747
0.3798
0.3847
0.3847
0.3898
0.3898
0.3898
0.395
0.395
0.3999
0.3999
0.405
0.405
0.405
0.405
0.4099
0.415
0.4199
0.425
0.425
0.4299
0.435
0.4397
0.4497
0.4497
0.4397
0.425
0.4099
0.405
0.405
0.405
0.405
0.405
0.405
0.425
0.4897
0.5999
0.6898
0.7049
0.5647
0.4446
0.3898
0.3798
0.3747
0.3698
0.3698
0.3647
0.3647
0.3647
0.3647
0.3647
0.3698
0.3747
0.3747
0.3798
0.3847
0.3847
0.3847
0.3898
0.3898
0.3898
0.395
0.3999
0.405
0.4099
0.415
0.425
0.4299
0.435
0.435
0.435
0.435
0.435
0.4299
0.4299
0.425
0.4199
0.415
0.405
0.3999
0.3898
0.3798
0.3698
0.3647
0.3598
0.3598
0.3598
0.3598
0.3598
0.3598
0.3598
0.3647
0.3647
0.3647
0.3647
0.3647
0.3647
0.3698
0.3698
0.3698
0.3698
0.3647
0.3647
0.3698
0.3698
0.3647
0.3647
0.3647
0.3647
0.3698
0.3747
0.3747
0.3747
0.3747
0.3747
0.3747
0.3747
0.3747
0.3798
0.3847
0.3847
0.3847
0.3898
0.395
0.405
0.405
0.4099
0.4099
0.415
0.4199
0.425
0.4199
0.4099
0.3898
0.3847
0.3847
0.3847
0.3847
0.3847
0.3847
0.3847
0.4199
0.5049
0.6199
0.6849
0.6299
0.4949
0.395
0.3647
0.3598
0.3547
0.3547
0.3498
0.3398
0.3398
0.3398
0.3447
0.3498
0.3598
0.3647
0.3647
0.3698
0.3698
0.3698
0.3698
0.3698
0.3747
0.3798
0.3847
0.3898
0.395
0.405
0.405
0.4099
0.4099
0.415
0.415
0.415
0.415
0.415
0.415
0.4099
0.4099
0.4099
0.4099
0.405
0.395
0.3898
0.3847
0.3798
0.3747
0.3747
0.3698
0.3698
0.3647
0.3647
0.3647
0.3698
0.3698
0.3698
0.3698
0.3698
0.3698
0.3698
0.3747
0.3747
0.3747
0.3798
0.3747
0.3747
0.3747
0.3747
0.3747
0.3798
0.3847
0.3898
0.395
0.395
0.405
0.405
0.4099
0.415
0.415
0.4199
0.4199
0.4199
0.4199
0.4199
0.425
0.435
0.4397
0.4446
0.4497
0.4548
0.4597
0.4648
0.4697
0.4597
0.4497
0.4299
0.425
0.425
0.425
0.4199
0.415
0.415
0.4299
0.4849
0.5899
0.6949
0.725
0.6299
0.4897
0.4099
0.395
0.3898
0.3898
0.3847
0.3847
0.3847
0.3847
0.3898
0.3898
0.3898
0.3898
0.395
0.395
0.395
0.395
0.395
0.395
0.3999
0.405
0.405
0.4099
0.415
0.4199
0.425
0.4299
0.435
0.4397
0.4446
0.4446
0.4397
0.4397
0.435
0.435
0.435
0.4299
0.4299
0.425
0.415
0.405
0.395
0.3898
0.3847
0.3798
0.3747
0.3698
0.3647
0.3647
0.3647
0.3647
0.3647
0.3598
0.3647
0.3647
0.3647
0.3698
0.3698
0.3698
0.3698
0.3698
0.3698
0.3747
0.3698
0.3698
0.3698
0.3747
0.3747
0.3747
0.3798
0.3847
0.3898
0.3898
0.3898
0.395
0.395
0.395
0.3999
0.405
0.405
0.405
0.4099
0.415
0.4199
0.425
0.4299
0.435
0.435
0.4397
0.4446
0.4497
0.4397
0.4299
0.415
0.405
0.405
0.405
0.405
0.405
0.405
0.435
0.5049
0.615
0.6998
0.6702
0.5449
0.4299
0.3847
0.3747
0.3747
0.3698
0.3698
0.3647
0.3647
0.3647
0.3647
0.3698
0.3747
0.3747
0.3798
0.3847
0.3847
0.3847
0.3847
0.3898
0.3898
0.395
0.405
0.405
0.4099
0.415
0.425
0.4299
0.4299
0.4299
0.4299
0.435
0.435
0.4299
0.4299
0.4299
0.4299
0.425
0.4199
0.415
0.4099
0.3999
0.3898
0.3847
0.3798
0.3747
0.3747
0.3747
0.3747
0.3698
0.3698
0.3698
0.3747
0.3747
0.3747
0.3747
0.3747
0.3798
0.3798
0.3798
0.3798
0.3747
0.3747
0.3747
0.3747
0.3747
0.3747
0.3747
0.3698
0.3698
0.3747
0.3747
0.3847
0.3847
0.3847
0.3847
0.3898
0.3898
0.3898
0.3898
0.3898
0.3898
0.395
0.3999
0.405
0.4099
0.4099
0.415
0.4199
0.425
0.4299
0.4299
0.415
0.395
0.3898
0.3898
0.3898
0.3898
0.3847
0.3847
0.395
0.4446
0.5449
0.6451
0.6751
0.5848
0.4497
0.3747
0.3598
0.3547
0.3547
0.3498
0.3447
0.3398
0.3398
0.3447
0.3447
0.3498
0.3498
0.3547
0.3598
0.3598
0.3598
0.3598
0.3647
0.3647
0.3647
0.3698
0.3747
0.3847
0.3898
0.395
0.3999
0.405
0.4099
0.4099
0.4099
0.405
0.405
0.3999
0.405
0.405
0.3999
0.395
0.395
0.3898
0.3798
0.3747
0.3647
0.3598
0.3547
0.3498
0.3498
0.3498
0.3498
0.3547
0.3547
0.3498
0.3498
0.3498
0.3598
0.3598
0.3598
0.3598
0.3598
0.3598
0.3598
0.3598
0.3598
0.3598
0.3598
0.3547
0.3547
0.3547
0.3647
0.3698
0.3698
0.3698
0.3698
0.3698
0.3747
0.3747
0.3798
0.3747
0.3747
0.3798
0.3798
0.3847
0.395
0.405
0.4099
0.415
0.415
0.4199
0.425
0.4299
0.425
0.4099
0.395
0.3898
0.3898
0.3898
0.3898
0.3847
0.3847
0.3999
0.4597
0.5601
0.6751
0.7049
0.6048
0.4697
0.395
0.3747
0.3647
0.3647
0.3598
0.3598
0.3547
0.3547
0.3598
0.3598
0.3598
0.3598
0.3598
0.3647
0.3647
0.3698
0.3698
0.3747
0.3747
0.3747
0.3798
0.3898
0.395
0.405
0.4099
0.415
0.415
0.4199
0.425
0.425
0.425
0.425
0.425
0.425
0.425
0.425
0.4199
0.415
0.415
0.4099
0.405
0.395
0.395
0.3898
0.3847
0.3798
0.3798
0.3847
0.3847
0.3847
0.3898
0.3898
0.3898
0.3847
0.3847
0.3847
0.3847
0.3847
0.3847
0.3847
0.3847
0.3847
0.3847
0.3847
0.3847
0.3847
0.3898
0.3898
0.3898
0.395
0.3999
0.405
0.405
0.405
0.405
0.405
0.405
0.405
0.405
0.405
0.4099
0.415
0.425
0.4299
0.4299
0.4299
0.435
0.435
0.4397
0.4446
0.425
0.4099
0.405
0.405
0.405
0.405
0.405
0.405
0.4199
0.4748
0.5799
0.6849
0.7098
0.5848
0.4548
0.3898
0.3747
0.3747
0.3698
0.3698
0.3647
0.3647
0.3647
0.3698
0.3747
0.3747
0.3747
0.3747
0.3747
0.3798
0.3847
0.3898
0.3898
0.395
0.395
0.405
0.405
0.4099
0.415
0.425
0.425
0.4299
0.4299
0.435
0.435
0.435
0.435
0.4299
0.4299
0.4299
0.4299
0.425
0.415
0.4099
0.405
0.395
0.3898
0.3847
0.3847
0.3747
0.3698
0.3698
0.3698
0.3747
0.3747
0.3747
0.3698
0.3747
0.3747
0.3747
0.3798
0.3798
0.3847
0.3847
0.3847
0.3798
0.3798
0.3798
0.3747
0.3747
0.3747
0.3798
0.3847
0.3847
0.3847
0.3847
0.3847
0.3898
0.3898
0.3898
0.3898
0.3898
0.3898
0.395
0.395
0.405
0.4099
0.4099
0.415
0.415
0.425
0.4299
0.435
0.435
0.4397
0.425
0.405
0.395
0.395
0.395
0.395
0.395
0.395
0.4099
0.4648
0.5647
0.6651
0.6949
0.6048
0.4697
0.395
0.3747
0.3698
0.3698
0.3647
0.3598
0.3598
0.3598
0.3647
0.3698
0.3698
0.3747
0.3747
0.3747
0.3747
0.3798
0.3847
0.3898
0.395
0.3999
0.405
0.405
0.4099
0.415
0.4199
0.425
0.4299
0.4299
0.435
0.435
0.4299
0.4299
0.425
0.425
0.425
0.4199
0.415
0.4099
0.3999
0.3898
0.3847
0.3747
0.3698
0.3698
0.3647
0.3647
0.3598
0.3598
0.3598
0.3647
0.3647
0.3647
0.3647
0.3698
0.3698
0.3698
0.3747
0.3747
0.3747
0.3747
0.3798
0.3798
0.3798
0.3798
0.3798
0.3798
0.3847
0.3898
0.3898
0.3898
0.3898
0.3898
0.3898
0.3898
0.3847
0.3847
0.3847
0.3847
0.3898
0.3898
0.3898
0.395
0.405
0.405
0.4099
0.4099
0.415
0.4199
0.425
0.425
0.4099
0.395
0.3847
0.3798
0.3798
0.3847
0.3847
0.3847
0.3898
0.435
0.53
0.64
0.6998
0.6351
0.4949
0.395
0.3647
0.3598
0.3547
0.3498
0.3498
0.3447
0.3447
0.3447
0.3498
0.3498
0.3498
0.3547
0.3498
0.3498
0.3498
0.3498
0.3547
0.3598
0.3598
0.3598
0.3647
0.3698
0.3747
0.3798
0.3847
0.3898
0.395
0.395
0.395
0.395
0.3898
0.3898
0.3898
0.3898
0.3898
0.3898
0.3847
0.3747
0.3698
0.3598
0.3498
0.3498
0.3447
0.3447
0.3447
0.3447
0.3447
0.3447
0.3447
0.3447
0.3498
0.3498
0.3498
0.3547
0.3598
0.3598
0.3647
0.3647
0.3598
0.3647
0.3647
0.3647
0.3647
0.3647
0.3698
0.3698
0.3698
0.3698
0.3698
0.3747
0.3747
0.3798
0.3847
0.3898
0.3898
0.3898
0.3898
0.3898
0.3898
0.395
0.405
0.4099
0.415
0.4199
0.425
0.4299
0.4299
0.4299
0.435
0.425
0.405
0.3898
0.3898
0.3898
0.3898
0.3898
0.3898
0.395
0.4397
0.53
0.6451
0.7098
0.6451
0.5049
0.4099
0.3798
0.3747
0.3698
0.3647
0.3647
0.3598
0.3598
0.3598
0.3647
0.3698
0.3698
0.3698
0.3698
0.3698
0.3747
0.3798
0.3847
0.3847
0.3898
0.395
0.3999
0.405
0.4099
0.415
0.425
0.4299
0.4299
0.4299
0.4299
0.4299
0.4299
0.4299
0.4299
0.4299
0.425
0.425
0.4199
0.415
0.4099
0.405
0.3999
0.395
0.3898
0.3847
0.3847
0.3847
0.3847
0.3847
0.3847
0.3847
0.3847
0.3847
0.3847
0.3847
0.3847
0.3847
0.3898
0.3898
0.3898
0.3847
0.3898
0.3898
0.3898
0.3898
0.3898
0.3847
0.3847
0.3847
0.3847
0.3898
0.3898
0.3898
0.395
0.395
0.395
0.395
0.3999
0.3999
0.405
0.405
0.4099
0.415
0.425
0.4299
0.435
0.4397
0.4397
0.4397
0.435
0.425
0.405
0.395
0.395
0.3999
0.3999
0.3999
0.3999
0.4099
0.4648
0.5647
0.6651
0.6998
0.6099
0.4748
0.3999
0.3847
0.3798
0.3747
0.3698
0.3698
0.3647
0.3647
0.3647
0.3698
0.3698
0.3747
0.3798
0.3847
0.3898
0.3898
0.3898
0.395
0.395
0.3999
0.405
0.405
0.4099
0.415
0.425
0.4299
0.435
0.435
0.435
0.435
0.435
0.435
0.4299
0.4299
0.4299
0.425
0.425
0.415
0.4099
0.405
0.395
0.3898
0.3847
0.3847
0.3798
0.3747
0.3747
0.3747
0.3798
0.3847
0.3847
0.3847
0.3847
0.3847
0.3847
0.3847
0.3847
0.3847
0.3898
0.3898
0.3898
0.3898
0.3847
0.3847
0.3847
0.3847
0.3798
0.3847
0.3847
0.3847
0.3847
0.3898
0.3898
0.3898
0.3898
0.395
0.395
0.3999
0.3999
0.3999
0.405
0.405
0.4099
0.4099
0.415
0.425
0.425
0.4299
0.435
0.435
0.425
0.4099
0.3999
0.3999
0.3999
0.395
0.395
0.395
0.405
0.4548
0.5501
0.6551
0.6898
0.5999
0.4648
0.3898
0.3698
0.3647
0.3647
0.3598
0.3498
0.3498
0.3547
0.3598
0.3598
0.3598
0.3647
0.3647
0.3698
0.3698
0.3698
0.3747
0.3747
0.3798
0.3847
0.3898
0.395
0.405
0.4099
0.415
0.4199
0.425
0.425
0.425
0.4299
0.425
0.425
0.425
0.4199
0.415
0.4099
0.405
0.3999
0.3898
0.3847
0.3747
0.3698
0.3647
0.3598
0.3598
0.3598
0.3598
0.3598
0.3598
0.3598
0.3598
0.3598
0.3647
0.3698
0.3698
0.3698
0.3698
0.3747
0.3798
0.3798
0.3798
0.3747
0.3798
0.3798
0.3747
0.3747
0.3747
0.3747
0.3798
0.3798
0.3798
0.3798
0.3798
0.3798
0.3798
0.3798
0.3798
0.3847
0.3847
0.3847
0.3898
0.395
0.3999
0.405
0.4099
0.415
0.4199
0.425
0.425
0.415
0.405
0.3898
0.3847
0.3847
0.3847
0.3847
0.3847
0.3798
0.3898
0.4446
0.5501
0.6551
0.6898
0.5848
0.4497
0.3747
0.3547
0.3498
0.3447
0.3398
0.3346
0.3295
0.3295
0.3346
0.3398
0.3447
0.3498
0.3498
0.3547
0.3547
0.3598
0.3647
0.3698
0.3698
0.3698
0.3747
0.3798
0.3898
0.395
0.405
0.405
0.4099
0.4099
0.4099
0.4099
0.4099
0.415
0.415
0.415
0.4199
0.415
0.415
0.4099
0.405
0.3999
0.3898
0.3898
0.3847
0.3847
0.3798
0.3747
0.3747
0.3747
0.3747
0.3747
0.3747
0.3747
0.3798
0.3847
0.3847
0.3847
0.3847
0.3847
0.3898
0.3898
0.3847
0.3847
0.3847
0.3847
0.3847
0.3847
0.3847
0.3847
0.3847
0.3898
0.3898
0.395
0.395
0.395
0.395
0.395
0.3999
0.3999
0.405
0.405
0.415
0.4199
0.425
0.4299
0.4299
0.435
0.4397
0.4397
0.4446
0.435
0.4199
0.4099
0.405
0.405
0.405
0.405
0.405
0.4099
0.4397
0.52
0.6299
0.7049
0.6702
0.5401
0.435
0.395
0.3898
0.3847
0.3798
0.3747
0.3698
0.3698
0.3698
0.3698
0.3698
0.3747
0.3798
0.3847
0.3847
0.3898
0.3898
0.395
0.3999
0.405
0.4099
0.4099
0.415
0.4199
0.4299
0.435
0.435
0.4397
0.4397
0.4397
0.4397
0.435
0.435
0.435
0.4397
0.435
0.435
0.4299
0.425
0.415
0.4099
0.3999
0.395
0.3898
0.3847
0.3847
0.3847
0.3847
0.3898
0.3898
0.3898
0.3898
0.3847
0.3847
0.3847
0.3898
0.3898
0.3898
0.3898
0.3898
0.3898
0.3898
0.3898
0.3898
0.3898
0.3847
0.3847
0.3898
0.3898
0.3847
0.3847
0.3898
0.3898
0.395
0.395
0.395
0.395
0.395
0.395
0.3999
0.405
0.4099
0.415
0.4199
0.425
0.425
0.4299
0.435
0.4397
0.4397
0.4299
0.415
0.405
0.405
0.405
0.405
0.3999
0.3999
0.405
0.4497
0.5349
0.6451
0.6949
0.6299
0.4897
0.3999
0.3747
0.3747
0.3747
0.3698
0.3647
0.3598
0.3598
0.3598
0.3647
0.3698
0.3747
0.3747
0.3747
0.3747
0.3798
0.3798
0.3847
0.3898
0.395
0.395
0.3999
0.405
0.4099
0.415
0.415
0.425
0.4299
0.4299
0.435
0.435
0.435
0.4299
0.4299
0.425
0.425
0.415
0.4099
0.405
0.395
0.3898
0.3798
0.3747
0.3698
0.3698
0.3698
0.3698
0.3647
0.3647
0.3647
0.3647
0.3698
0.3698
0.3698
0.3698
0.3698
0.3747
0.3747
0.3747
0.3747
0.3747
0.3698
0.3698
0.3647
0.3647
0.3647
0.3647
0.3647
0.3647
0.3647
0.3647
0.3647
0.3698
0.3747
0.3747
0.3747
0.3747
0.3747
0.3698
0.3747
0.3847
0.395
0.3999
0.405
0.4099
0.415
0.4199
0.425
0.4299
0.4299
0.415
0.405
0.395
0.395
0.395
0.3898
0.3898
0.3898
0.395
0.4446
0.5449
0.6551
0.6998
0.6199
0.4697
0.3798
0.3547
0.3498
0.3498
0.3498
0.3447
0.3398
0.3447
0.3447
0.3498
0.3498
0.3498
0.3547
0.3598
0.3598
0.3647
0.3647
0.3647
0.3698
0.3747
0.3847
0.3898
0.395
0.3999
0.405
0.4099
0.415
0.415
0.415
0.415
0.4199
0.415
0.4099
0.4099
0.405
0.3999
0.395
0.3898
0.3898
0.3798
0.3747
0.3698
0.3647
0.3598
0.3547
0.3547
0.3547
0.3547
0.3547
0.3598
0.3598
0.3647
0.3647
0.3598
0.3647
0.3647
0.3647
0.3647
0.3647
0.3647
0.3647
0.3647
0.3647
0.3598
0.3547
0.3547
0.3547
0.3547
0.3547
0.3547
0.3598
0.3598
0.3647
0.3647
0.3647
0.3647
0.3698
0.3747
0.3747
0.3847
0.3898
0.3999
0.405
0.405
0.4099
0.415
0.415
0.425
0.425
0.425
0.4099
0.395
0.3898
0.3898
0.395
0.395
0.395
0.395
0.4099
0.4697
0.5747
0.6803
0.7049
0.5948
0.4597
0.395
0.3747
0.3698
0.3647
0.3598
0.3598
0.3598
0.3598
0.3598
0.3647
0.3647
0.3698
0.3747
0.3798
0.3847
0.3847
0.3898
0.395
0.395
0.3999
0.405
0.4099
0.415
0.4199
0.4299
0.4299
0.435
0.435
0.435
0.435
0.435
0.435
0.435
0.435
0.435
0.4299
0.4299
0.425
0.415
0.4099
0.405
0.3999
0.395
0.395
0.395
0.3898
0.3898
0.3898
0.3847
0.3847
0.3898
0.3898
0.3898
0.3898
0.3898
0.395
0.395
0.3898
0.3898
0.3898
0.3898
0.3898
0.3898
0.3898
0.3847
0.3847
0.3847
0.3847
0.3847
0.3898
0.3898
0.395
0.395
0.3999
0.3999
0.405
0.3999
0.405
0.405
0.405
0.4099
0.415
0.425
0.425
0.4299
0.435
0.4397
0.4446
0.4446
0.435
0.4199
0.4099
0.4099
0.405
0.405
0.405
0.405
0.4099
0.4497
0.5449
0.65
0.7098
0.6551
0.5149
0.4199
0.3847
0.3847
0.3847
0.3798
0.3747
0.3698
0.3698
0.3698
0.3747
0.3747
0.3798
0.3847
0.3898
0.3898
0.3898
0.3898
0.395
0.395
0.395
0.405
0.4099
0.4099
0.415
0.425
0.4299
0.4299
0.435
0.4397
0.4397
0.4397
0.435
0.435
0.435
0.4299
0.4299
0.4299
0.425
0.4199
0.4099
0.405
0.395
0.3898
0.3847
0.3847
0.3847
0.3847
0.3847
0.3847
0.3798
0.3798
0.3798
0.3798
0.3847
0.3847
0.3847
0.3847
0.3847
0.3847
0.3847
0.3847
0.3798
0.3798
0.3798
0.3798
0.3747
0.3747
0.3747
0.3798
0.3798
0.3847
0.3847
0.3847
0.3847
0.3847
0.3898
0.3898
0.3898
0.3898
0.3898
0.395
0.405
0.4099
0.415
0.415
0.4199
0.425
0.4299
0.435
0.435
0.425
0.4099
0.3999
0.395
0.395
0.395
0.3898
0.3898
0.3999
0.4497
0.5501
0.66
0.6949
0.6048
0.4648
0.3898
0.3698
0.3698
0.3698
0.3647
0.3598
0.3547
0.3547
0.3598
0.3598
0.3598
0.3598
0.3598
0.3647
0.3698
0.3698
0.3747
0.3747
0.3747
0.3798
0.3847
0.3898
0.395
0.3999
0.4099
0.415
0.415
0.415
0.4199
0.4199
0.4199
0.415
0.415
0.415
0.415
0.415
0.415
0.4099
0.3999
0.395
0.3898
0.3847
0.3747
0.3698
0.3698
0.3698
0.3698
0.3698
0.3698
0.3698
0.3698
0.3698
0.3647
0.3698
0.3698
0.3698
0.3698
0.3698
0.3698
0.3698
0.3698
0.3698
0.3647
0.3647
0.3647
0.3647
0.3647
0.3698
0.3698
0.3647
0.3698
0.3698
0.3747
0.3747
0.3747
0.3798
0.3798
0.3798
0.3847
0.3847
0.3898
0.395
0.3999
0.405
0.4099
0.4099
0.415
0.415
0.4199
0.415
0.405
0.3898
0.3798
0.3798
0.3747
0.3747
0.3698
0.3698
0.3847
0.4397
0.5349
0.64
0.6803
0.5848
0.4446
0.3698
0.3447
0.3398
0.3398
0.3346
0.3295
0.3246
0.3246
0.3295
0.3295
0.3295
0.3295
0.3295
0.3295
0.3346
0.3346
0.3398
0.3398
0.3398
0.3447
0.3498
0.3547
0.3647
0.3698
0.3747
0.3847
0.3898
0.395
0.395
0.395
0.395
0.395
0.395
0.395
0.3999
0.3999
0.395
0.3898
0.3847
0.3798
0.3747
0.3698
0.3698
0.3698
0.3647
0.3647
0.3598
0.3598
0.3647
0.3647
0.3647
0.3698
0.3698
0.3747
0.3747
0.3747
0.3798
0.3847
0.3798
0.3798
0.3798
0.3747
0.3747
0.3747
0.3747
0.3747
0.3747
0.3747
0.3747
0.3747
0.3847
0.3898
0.3898
0.3898
0.3898
0.3898
0.395
0.395
0.3999
0.3999
0.405
0.4099
0.415
0.425
0.4299
0.435
0.435
0.4397
0.4397
0.4299
0.415
0.405
0.3999
0.3999
0.405
0.3999
0.3999
0.405
0.4397
0.53
0.6451
0.7098
0.6451
0.51
0.415
0.3847
0.3747
0.3747
0.3698
0.3647
0.3647
0.3647
0.3698
0.3698
0.3747
0.3747
0.3747
0.3747
0.3847
0.3847
0.3898
0.395
0.3999
0.405
0.405
0.4099
0.415
0.4199
0.425
0.4299
0.435
0.4397
0.4397
0.4397
0.435
0.435
0.435
0.435
0.4397
0.435
0.4299
0.425
0.425
0.415
0.4099
0.405
0.3999
0.395
0.395
0.3898
0.3898
0.3847
0.3847
0.3847
0.3847
0.3847
0.3898
0.3898
0.3898
0.3898
0.3898
0.3898
0.3898
0.3898
0.3898
0.3898
0.3847
0.3847
0.3847
0.3847
0.3847
0.3847
0.3847
0.3847
0.3898
0.3898
0.3898
0.3898
0.395
0.395
0.395
0.395
0.3999
0.3999
0.405
0.4099
0.4099
0.415
0.4199
0.425
0.4299
0.435
0.4397
0.435
0.425
0.405
0.3999
0.3999
0.3999
0.395
0.395
0.395
0.415
0.4748
0.5747
0.6751
0.6998
0.5948
0.4597
0.395
0.3747
0.3747
0.3747
0.3698
0.3647
0.3647
0.3647
0.3647
0.3698
0.3698
0.3747
0.3747
0.3847
0.3847
0.3898
0.3898
0.3898
0.395
0.395
0.3999
0.405
0.4099
0.415
0.425
0.4299
0.435
0.4397
0.4397
0.4397
0.4397
0.4397
0.4397
0.435
0.435
0.4299
0.425
0.4199
0.415
0.405
0.395
0.3898
0.3847
0.3747
0.3747
0.3698
0.3698
0.3698
0.3698
0.3698
0.3698
0.3698
0.3747
0.3747
0.3747
0.3798
0.3798
0.3798
0.3798
0.3798
0.3747
0.3747
0.3747
0.3798
0.3798
0.3747
0.3747
0.3747
0.3798
0.3798
0.3798
0.3798
0.3847
0.3847
0.3898
0.3847
0.3847
0.3847
0.3847
0.3847
0.3898
0.395
0.3999
0.3999
0.405
0.4099
0.4099
0.415
0.425
0.4199
0.405
0.3898
0.3847
0.3847
0.3847
0.3898
0.3898
0.3898
0.4099
0.4748
0.5848
0.6849
0.6998
0.5647
0.435
0.3798
0.3698
0.3647
0.3647
0.3647
0.3598
0.3598
0.3547
0.3598
0.3647
0.3647
0.3698
0.3647
0.3647
0.3647
0.3647
0.3698
0.3698
0.3747
0.3747
0.3747
0.3847
0.3898
0.395
0.405
0.4099
0.415
0.415
0.4199
0.4199
0.4199
0.4199
0.4199
0.4199
0.415
0.415
0.4099
0.3999
0.395
0.3847
0.3747
0.3698
0.3647
0.3598
0.3547
0.3547
0.3547
0.3547
0.3498
0.3547
0.3547
0.3598
0.3547
0.3547
0.3598
0.3647
0.3647
0.3647
0.3647
0.3647
0.3598
0.3547
0.3498
0.3498
0.3498
0.3498
0.3498
0.3498
0.3598
0.3598
0.3598
0.3647
0.3647
0.3647
0.3647
0.3647
0.3647
0.3647
0.3647
0.3698
0.3798
0.3847
0.3898
0.395
0.405
0.405
0.4099
0.415
0.415
0.405
0.3898
0.3847
0.3847
0.3847
0.3798
0.3798
0.3747
0.3847
0.4397
0.5349
0.6451
0.6898
0.6048
0.4697
0.3847
0.3647
0.3598
0.3547
0.3498
0.3498
0.3498
0.3498
0.3498
0.3547
0.3598
0.3598
0.3647
0.3698
0.3747
0.3747
0.3798
0.3798
0.3798
0.3798
0.3847
0.3898
0.395
0.405
0.4099
0.4199
0.425
0.4299
0.435
0.435
0.435
0.435
0.435
0.4397
0.4397
0.4397
0.435
0.4299
0.425
0.4199
0.415
0.4099
0.405
0.3999
0.395
0.3898
0.3898
0.3898
0.3898
0.3847
0.3898
0.3898
0.3847
0.3898
0.3898
0.3898
0.395
0.395
0.395
0.395
0.395
0.395
0.395
0.395
0.395
0.395
0.395
0.395
0.395
0.395
0.395
0.395
0.395
0.3999
0.405
0.405
0.4099
0.4099
0.4099
0.4099
0.415
0.425
0.425
0.4299
0.4299
0.435
0.4397
0.4446
0.4497
0.4397
0.425
0.4099
0.405
0.405
0.405
0.405
0.405
0.405
0.435
0.51
0.6199
0.7049
0.7098
0.5449
0.435
0.3898
0.3847
0.3798
0.3747
0.3747
0.3698
0.3698
0.3698
0.3747
0.3747
0.3747
0.3798
0.3847
0.3898
0.3898
0.395
0.3999
0.405
0.405
0.4099
0.415
0.4199
0.425
0.4299
0.4299
0.435
0.4397
0.4497
0.4446
0.4446
0.4446
0.4397
0.4397
0.4397
0.435
0.435
0.4299
0.425
0.415
0.4099
0.3999
0.395
0.395
0.3898
0.3847
0.3847
0.3798
0.3798
0.3798
0.3847
0.3847
0.3847
0.3847
0.3847
0.3847
0.3898
0.3898
0.3898
0.3847
0.3847
0.3798
0.3798
0.3847
0.3847
0.3847
0.3847
0.3798
0.3798
0.3847
0.3847
0.3847
0.3847
0.3898
0.3898
0.395
0.395
0.395
0.3999
0.405
0.405
0.4099
0.4099
0.415
0.415
0.4199
0.425
0.4299
0.435
0.4397
0.435
0.415
0.405
0.3999
0.3999
0.3999
0.3999
0.3999
0.405
0.435
0.51
0.6199
0.6949
0.6551
0.52
0.4199
0.3798
0.3698
0.3698
0.3647
0.3598
0.3598
0.3598
0.3647
0.3647
0.3647
0.3698
0.3698
0.3747
0.3798
0.3847
0.3847
0.3847
0.3898
0.3898
0.395
0.3999
0.405
0.4099
0.415
0.425
0.4299
0.4299
0.4299
0.4299
0.4299
0.425
0.425
0.425
0.425
0.425
0.425
0.415
0.4099
0.395
0.3898
0.3847
0.3747
0.3698
0.3647
0.3647
0.3647
0.3647
0.3647
0.3647
0.3698
0.3747
0.3798
0.3847
0.3847
0.3847
0.3898
0.3898
0.3898
0.3847
0.3847
0.3847
0.3847
0.3898
0.3898
0.3847
0.3847
0.3847
0.3798
0.3798
0.3847
0.3847
0.3847
0.3798
0.3798
0.3798
0.3847
0.3847
0.3847
0.3847
0.3847
0.395
0.405
0.4099
0.4099
0.4099
0.415
0.425
0.4299
0.435
0.425
0.4099
0.395
0.3898
0.3898
0.395
0.395
0.395
0.395
0.425
0.4998
0.615
0.6998
0.6702
0.53
0.4099
0.3647
0.3598
0.3598
0.3598
0.3547
0.3498
0.3498
0.3498
0.3498
0.3498
0.3498
0.3547
0.3598
0.3598
0.3598
0.3647
0.3647
0.3698
0.3698
0.3747
0.3747
0.3798
0.3847
0.3898
0.3898
0.395
0.395
0.395
0.3999
0.3999
0.395
0.395
0.395
0.395
0.395
0.3898
0.3847
0.3747
0.3698
0.3647
0.3598
0.3547
0.3498
0.3498
0.3447
0.3498
0.3498
0.3498
0.3498
0.3498
0.3547
0.3598
0.3598
0.3598
0.3598
0.3598
0.3647
0.3647
0.3647
0.3647
0.3647
0.3647
0.3598
0.3598
0.3598
0.3598
0.3647
0.3647
0.3698
0.3698
0.3747
0.3747
0.3847
0.3847
0.3847
0.3847
0.3847
0.3847
0.3898
0.3898
0.395
0.405
0.4099
0.415
0.415
0.425
0.425
0.4299
0.435
0.425
0.4099
0.395
0.395
0.395
0.395
0.395
0.395
0.3999
0.4299
0.5049
0.615
0.6998
0.7049
0.5401
0.4299
0.3847
0.3747
0.3698
0.3647
0.3647
0.3647
0.3647
0.3647
0.3647
0.3647
0.3647
0.3698
0.3747
0.3747
0.3798
0.3847
0.3898
0.3898
0.3898
0.3898
0.395
0.405
0.4099
0.415
0.425
0.4299
0.435
0.435
0.435
0.435
0.435
0.4299
0.4299
0.4299
0.4299
0.425
0.425
0.4199
0.415
0.4099
0.405
0.395
0.3898
0.3847
0.3847
0.3847
0.3847
0.3847
0.3847
0.3847
0.3847
0.3847
0.3847
0.3847
0.3847
0.3847
0.3898
0.3898
0.3847
0.3898
0.3898
0.3847
0.3847
0.3847
0.3847
0.3847
0.3847
0.3847
0.3898
0.3898
0.3898
0.395
0.395
0.3999
0.405
0.405
0.405
0.3999
0.3999
0.405
0.4099
0.415
0.4199
0.425
0.4299
0.435
0.4397
0.4397
0.4397
0.4299
0.415
0.405
0.405
0.405
0.405
0.405
0.405
0.405
0.4446
0.5349
0.6451
0.7049
0.64
0.4998
0.405
0.3747
0.3747
0.3698
0.3698
0.3647
0.3647
0.3598
0.3598
0.3647
0.3647
0.3647
0.3698
0.3698
0.3747
0.3798
0.3847
0.3847
0.3898
0.395
0.3999
0.405
0.4099
0.415
0.425
0.425
0.4299
0.435
0.435
0.435
0.435
0.4299
0.4299
0.4299
0.4299
0.4299
0.425
0.4199
0.415
0.4099
0.405
0.395
0.3898
0.3847
0.3798
0.3747
0.3747
0.3747
0.3747
0.3747
0.3698
0.3698
0.3747
0.3747
0.3747
0.3747
0.3747
0.3798
0.3798
0.3847
0.3847
0.3847
0.3847
0.3798
0.3747
0.3747
0.3747
0.3747
0.3798
0.3847
0.3847
0.3847
0.3898
0.3898
0.3898
0.395
0.395
0.395
0.395
0.395
0.3999
0.405
0.4099
0.415
0.4199
0.425
0.4299
0.4299
0.435
0.435
0.4299
0.4099
0.395
0.395
0.395
0.395
0.395
0.3898
0.3898
0.425
0.5049
0.615
0.6849
0.64
0.5049
0.405
0.3647
0.3598
0.3598
0.3598
0.3547
0.3498
0.3498
0.3498
0.3547
0.3647
0.3647
0.3698
0.3698
0.3698
0.3698
0.3747
0.3847
0.3898
0.3898
0.3898
0.395
0.395
0.405
0.4099
0.415
0.415
0.4199
0.415
0.415
0.415
0.415
0.415
0.4099
0.4099
0.4099
0.405
0.3999
0.395
0.3847
0.3747
0.3698
0.3647
0.3647
0.3598
0.3598
0.3598
0.3598
0.3598
0.3598
0.3598
0.3598
0.3647
0.3698
0.3698
0.3698
0.3698
0.3698
0.3698
0.3698
0.3647
0.3647
0.3598
0.3598
0.3598
0.3598
0.3598
0.3598
0.3598
0.3647
0.3647
0.3698
0.3747
0.3747
0.3798
0.3798
0.3847
0.3847
0.3847
0.3847
0.3847
0.3898
0.395
0.405
0.405
0.405
0.4099
0.415
0.4199
0.415
0.405
0.3847
0.3747
0.3747
0.3747
0.3747
0.3747
0.3698
0.3798
0.425
0.52
0.6351
0.6898
0.615
0.4748
0.3798
0.3598
0.3498
0.3498
0.3447
0.3447
0.3447
0.3447
0.3447
0.3447
0.3447
0.3498
0.3498
0.3598
0.3598
0.3647
0.3698
0.3698
0.3698
0.3698
0.3698
0.3798
0.3898
0.395
0.405
0.4099
0.4099
0.415
0.415
0.415
0.415
0.415
0.4199
0.4199
0.4199
0.415
0.415
0.415
0.4099
0.405
0.3999
0.395
0.3898
0.3898
0.3898
0.3847
0.3847
0.3847
0.3847
0.3798
0.3798
0.3798
0.3847
0.3847
0.3898
0.3898
0.3898
0.3898
0.3898
0.3898
0.3898
0.3847
0.3847
0.3847
0.3847
0.3847
0.3847
0.3898
0.3898
0.3898
0.395
0.395
0.405
0.405
0.4099
0.4099
0.4099
0.4099
0.4099
0.4099
0.415
0.425
0.4299
0.4299
0.435
0.4397
0.4446
0.4497
0.4548
0.4548
0.4397
0.425
0.415
0.415
0.4099
0.4099
0.4099
0.4099
0.4199
0.4748
0.5799
0.6849
0.7149
0.615
0.4797
0.4099
0.3898
0.3898
0.3847
0.3847
0.3798
0.3747
0.3747
0.3747
0.3798
0.3847
0.3898
0.3898
0.395
0.395
0.395
0.3999
0.405
0.4099
0.4099
0.415
0.415
0.425
0.4299
0.4299
0.435
0.4397
0.4397
0.4497
0.4446
0.4446
0.4397
0.4397
0.4397
0.435
0.4299
0.425
0.4199
0.415
0.4099
0.3999
0.3898
0.3847
0.3847
0.3798
0.3798
0.3798
0.3847
0.3847
0.3847
0.3847
0.3847
0.3898
0.3898
0.3898
0.395
0.395
0.395
0.395
0.395
0.395
0.395
0.395
0.395
0.3898
0.3898
0.3898
0.395
0.395
0.395
0.395
0.395
0.395
0.3999
0.3999
0.3999
0.3999
0.405
0.405
0.405
0.4099
0.4099
0.415
0.4199
0.425
0.4299
0.4299
0.435
0.435
0.4397
0.4299
0.415
0.405
0.405
0.405
0.405
0.405
0.405
0.4099
0.4497
0.5349
0.6451
0.6998
0.6351
0.4949
0.3999
0.3747
0.3698
0.3698
0.3698
0.3647
0.3647
0.3647
0.3647
0.3647
0.3647
0.3698
0.3747
0.3747
0.3798
0.3847
0.3847
0.3847
0.3847
0.3898
0.3898
0.395
0.3999
0.405
0.4099
0.4199
0.425
0.4299
0.4299
0.4299
0.4299
0.4299
0.4299
0.4299
0.4299
0.425
0.415
0.4099
0.405
0.3999
0.3898
0.3847
0.3747
0.3698
0.3647
0.3647
0.3647
0.3647
0.3647
0.3647
0.3647
0.3647
0.3647
0.3698
0.3647
0.3647
0.3647
0.3647
0.3698
0.3698
0.3747
0.3698
0.3698
0.3698
0.3698
0.3698
0.3698
0.3698
0.3698
0.3698
0.3747
0.3798
0.3798
0.3847
0.3847
0.3847
0.3847
0.3898
0.3898
0.3898
0.395
0.405
0.4099
0.415
0.4199
0.425
0.4299
0.4299
0.435
0.4397
0.425
0.405
0.395
0.3898
0.3898
0.3898
0.3898
0.3898
0.3898
0.4199
0.4998
0.615
0.6949
0.66
0.5249
0.405
0.3647
0.3598
0.3598
0.3598
0.3547
0.3498
0.3498
0.3498
0.3547
0.3598
0.3647
0.3598
0.3598
0.3598
0.3647
0.3647
0.3698
0.3698
0.3698
0.3747
0.3798
0.3847
0.3847
0.3898
0.395
0.405
0.405
0.4099
0.4099
0.4099
0.415
0.415
0.415
0.4099
0.405
0.405
0.395
0.3898
0.3847
0.3747
0.3698
0.3647
0.3598
0.3598
0.3598
0.3598
0.3547
0.3547
0.3547
0.3598
0.3598
0.3598
0.3647
0.3647
0.3647
0.3647
0.3647
0.3698
0.3647
0.3647
0.3698
0.3698
0.3647
0.3647
0.3698
0.3698
0.3698
0.3698
0.3747
0.3747
0.3798
0.3847
0.3847
0.3847
0.3847
0.3847
0.3898
0.3898
0.395
0.395
0.405
0.4099
0.415
0.4199
0.4199
0.425
0.4299
0.435
0.4397
0.435
0.4199
0.405
0.395
0.395
0.395
0.395
0.395
0.395
0.4099
0.4697
0.5747
0.6803
0.7049
0.5948
0.4648
0.3999
0.3798
0.3747
0.3698
0.3647
0.3598
0.3598
0.3647
0.3647
0.3647
0.3698
0.3698
0.3698
0.3747
0.3798
0.3847
0.3898
0.395
0.395
0.395
0.395
0.405
0.4099
0.415
0.425
0.4299
0.435
0.435
0.435
0.435
0.4299
0.4299
0.4299
0.4299
0.435
0.435
0.4299
0.425
0.4199
0.4099
0.405
0.3999
0.395
0.3898
0.3898
0.3898
0.3898
0.3847
0.3847
0.3847
0.3847
0.3898
0.3898
0.3898
0.3898
0.3898
0.395
0.395
0.3898
0.3898
0.3898
0.3847
0.3898
0.3847
0.3847
0.3847
0.3847
0.3898
0.3898
0.3898
0.395
0.395
0.395
0.3999
0.405
0.405
0.405
0.405
0.405
0.4099
0.415
0.4199
0.425
0.425
0.4299
0.435
0.4397
0.4446
0.4497
0.4446
0.4299
0.415
0.4099
0.4099
0.4099
0.4099
0.4099
0.405
0.425
0.4897
0.5948
0.6898
0.7098
0.5799
0.4548
0.395
0.3847
0.3847
0.3798
0.3698
0.3698
0.3647
0.3698
0.3698
0.3747
0.3798
0.3847
0.3847
0.3847
0.3898
0.395
0.395
0.395
0.3999
0.405
0.4099
0.415
0.4199
0.4299
0.435
0.435
0.4397
0.4397
0.4446
0.4497
0.4446
0.4397
0.4397
0.435
0.435
0.435
0.4299
0.4199
0.4099
0.405
0.395
0.3898
0.3847
0.3847
0.3847
0.3847
0.3847
0.3847
0.3798
0.3798
0.3798
0.3798
0.3747
0.3747
0.3798
0.3847
0.3898
0.3898
0.3898
0.3898
0.3898
0.3898
0.3898
0.3898
0.3898
0.3898
0.3847
0.3847
0.3847
0.3847
0.3898
0.395
0.395
0.395
0.395
0.3999
0.3999
0.3999
0.405
0.405
0.4099
0.4099
0.415
0.415
0.4199
0.425
0.425
0.425
0.4299
0.4299
0.415
0.3999
0.395
0.3898
0.3898
0.3898
0.3898
0.3898
0.405
0.4648
0.5647
0.6651
0.6898
0.5848
0.4548
0.3798
0.3647
0.3647
0.3598
0.3547
0.3447
0.3447
0.3447
0.3447
0.3447
0.3498
0.3547
0.3547
0.3598
0.3647
0.3698
0.3698
0.3698
0.3698
0.3747
0.3747
0.3798
0.3847
0.3898
0.395
0.395
0.3999
0.405
0.405
0.4099
0.4099
0.4099
0.4099
0.4099
0.4099
0.4099
0.4099
0.405
0.3999
0.395
0.3898
0.3847
0.3747
0.3747
0.3698
0.3698
0.3698
0.3698
0.3698
0.3747
0.3747
0.3747
0.3698
0.3747
0.3747
0.3747
0.3798
0.3847
0.3798
0.3747
0.3698
0.3698
0.3698
0.3698
0.3698
0.3698
0.3698
0.3647
0.3647
0.3647
0.3698
0.3747
0.3747
0.3747
0.3798
0.3847
0.3847
0.3847
0.3847
0.3898
0.395
0.405
0.4099
0.4099
0.4099
0.415
0.425
0.4299
0.435
0.435
0.425
0.4099
0.3999
0.395
0.395
0.395
0.3898
0.3898
0.3999
0.4446
0.5501
0.66
0.6998
0.6099
0.4697
0.3798
0.3598
0.3498
0.3498
0.3447
0.3398
0.3398
0.3295
0.3295
0.3346
0.3398
0.3398
0.3447
0.3447
0.3498
0.3498
0.3547
0.3547
0.3598
0.3598
0.3598
0.3647
0.3747
0.3798
0.3847
0.3898
0.395
0.395
0.405
0.405
0.405
0.405
0.405
0.405
0.405
0.3999
0.3999
0.395
0.3898
0.3847
0.3798
0.3747
0.3747
0.3747
0.3698
0.3698
0.3698
0.3698
0.3698
0.3698
0.3747
0.3747
0.3747
0.3747
0.3747
0.3798
0.3847
0.3898
0.3898
0.395
0.395
0.3898
0.3898
0.3847
0.3847
0.3847
0.3898
0.3898
0.3898
0.3898
0.3898
0.3898
0.3898
0.395
0.395
0.395
0.395
0.395
0.395
0.3999
0.405
0.4099
0.4199
0.425
0.4299
0.4299
0.435
0.4397
0.4397
0.4397
0.425
0.415
0.4099
0.405
0.405
0.3999
0.395
0.395
0.4199
0.4797
0.5848
0.6849
0.7049
0.5799
0.4497
0.3898
0.3747
0.3698
0.3698
0.3647
0.3647
0.3647
0.3647
0.3647
0.3698
0.3747
0.3747
0.3798
0.3847
0.3847
0.3898
0.3898
0.395
0.395
0.395
0.3999
0.405
0.4099
0.4199
0.425
0.4299
0.435
0.4397
0.4397
0.435
0.435
0.435
0.4397
0.4397
0.435
0.435
0.4299
0.425
0.4199
0.415
0.4099
0.3999
0.395
0.3898
0.3847
0.3847
0.3847
0.3847
0.3847
0.3847
0.3847
0.3898
0.3898
0.3898
0.3898
0.3898
0.395
0.395
0.395
0.3898
0.3898
0.3847
0.3847
0.3847
0.3847
0.3847
0.3847
0.3847
0.3847
0.3898
0.3898
0.3898
0.3898
0.395
0.395
0.395
0.395
0.395
0.395
0.405
0.405
0.4099
0.415
0.4199
0.4199
0.425
0.4299
0.435
0.4397
0.4397
0.425
0.405
0.3999
0.3999
0.3999
0.3999
0.3999
0.3999
0.4199
0.4897
0.5999
0.6849
0.6998
0.5601
0.4397
0.3847
0.3747
0.3698
0.3647
0.3647
0.3598
0.3598
0.3598
0.3647
0.3647
0.3698
0.3747
0.3747
0.3798
0.3798
0.3847
0.3847
0.3847
0.3898
0.3898
0.395
0.405
0.4099
0.415
0.4199
0.4299
0.435
0.435
0.435
0.435
0.4299
0.4299
0.4299
0.4299
0.4299
0.425
0.415
0.4099
0.405
0.3999
0.3898
0.3847
0.3747
0.3747
0.3698
0.3698
0.3698
0.3698
0.3747
0.3747
0.3698
0.3698
0.3698
0.3698
0.3698
0.3747
0.3747
0.3698
0.3698
0.3698
0.3698
0.3698
0.3698
0.3698
0.3698
0.3698
0.3647
0.3647
0.3698
0.3698
0.3698
0.3747
0.3747
0.3698
0.3698
0.3698
0.3698
0.3698
0.3698
0.3747
0.3847
0.3898
0.3898
0.3898
0.395
0.3999
0.405
0.4099
0.415
0.4099
0.395
0.3798
0.3747
0.3747
0.3798
0.3798
0.3798
0.3798
0.3999
0.4697
0.5799
0.6702
0.6803
0.5349
0.415
0.3598
0.3547
0.3498
0.3498
0.3447
0.3447
0.3447
0.3447
0.3447
0.3447
0.3498
0.3498
0.3547
0.3598
0.3598
0.3598
0.3647
0.3647
0.3698
0.3698
0.3698
0.3747
0.3847
0.3898
0.3898
0.395
0.3999
0.405
0.405
0.405
0.3999
0.3999
0.395
0.395
0.395
0.395
0.3898
0.3898
0.3847
0.3747
0.3698
0.3647
0.3598
0.3598
0.3647
0.3647
0.3598
0.3598
0.3598
0.3647
0.3647
0.3647
0.3647
0.3698
0.3698
0.3747
0.3747
0.3747
0.3747
0.3698
0.3698
0.3698
0.3698
0.3698
0.3698
0.3698
0.3698
0.3698
0.3698
0.3698
0.3747
0.3798
0.3847
0.3898
0.3898
0.3898
0.3898
0.3898
0.3898
0.3898
0.395
0.405
0.4099
0.415
0.4199
0.425
0.425
0.4299
0.425
0.415
0.395
0.3898
0.3898
0.3898
0.3898
0.3898
0.3898
0.395
0.4397
0.5349
0.6551
0.7098
0.64
0.4998
0.405
0.3747
0.3698
0.3698
0.3647
0.3598
0.3598
0.3598
0.3647
0.3647
0.3698
0.3698
0.3747
0.3747
0.3798
0.3847
0.3847
0.3898
0.3898
0.395
0.3999
0.405
0.4099
0.415
0.425
0.4299
0.4299
0.435
0.435
0.435
0.435
0.4397
0.4397
0.4446
0.4446
0.4397
0.435
0.435
0.435
0.4299
0.425
0.425
0.425
0.415
0.4099
0.4099
0.4099
0.4099
0.4099
0.405
0.4099
0.4099
0.415
0.4099
0.4099
0.4099
0.4099
0.4099
0.4099
0.405
0.405
0.405
0.3999
0.3999
0.395
0.395
0.395
0.395
0.3999
0.395
0.395
0.395
0.395
0.395
0.395
0.395
0.395
0.3999
0.3999
0.3999
0.405
0.415
0.4199
0.425
0.4299
0.435
0.435
0.4397
0.4446
0.4397
0.425
0.405
0.3999
0.405
0.3999
0.3999
0.395
0.395
0.4099
0.4697
0.5699
0.6751
0.7049
0.5999
0.4648
0.395
0.3747
0.3747
0.3698
0.3647
0.3647
0.3647
0.3647
0.3647
0.3647
0.3647
0.3647
0.3647
0.3698
0.3698
0.3698
0.3698
0.3747
0.3747
0.3747
0.3798
0.3847
0.3847
0.3898
0.3898
0.395
0.3999
0.405
0.405
0.405
0.405
0.405
0.405
0.405
0.3999
0.395
0.3898
0.3847
0.3798
0.3747
0.3698
0.3647
0.3598
0.3598
0.3598
0.3598
0.3598
0.3598
0.3598
0.3647
0.3647
0.3698
0.3747
0.3747
0.3747
0.3747
0.3747
0.3747
0.3798
0.3747
0.3798
0.3847
0.3847
0.3798
0.3747
0.3747
0.3747
0.3747
0.3747
0.3798
0.3847
0.3898
0.3898
0.3898
0.3898
0.3898
0.395
0.395
0.395
0.395
0.3999
0.405
0.405
0.4099
0.4099
0.415
0.425
0.4299
0.4299
0.4299
0.4199
0.405
0.3898
0.3898
0.3898
0.3898
0.395
0.395
0.3999
0.4397
0.5349
0.6451
0.6949
0.6299
0.4949
0.3999
0.3698
0.3647
0.3598
0.3547
0.3498
0.3498
0.3498
0.3498
0.3547
0.3598
0.3598
0.3647
0.3647
0.3698
0.3698
0.3698
0.3747
0.3798
0.3798
0.3847
0.3898
0.3898
0.395
0.3999
0.405
0.4099
0.415
0.415
0.415
0.4099
0.4099
0.4099
0.4099
0.4099
0.4099
0.405
0.395
0.3898
0.3798
0.3698
0.3647
0.3598
0.3598
0.3598
0.3547
0.3498
0.3498
0.3498
0.3498
0.3547
0.3547
0.3547
0.3598
0.3598
0.3598
0.3598
0.3598
0.3598
0.3598
0.3647
0.3598
0.3647
0.3647
0.3647
0.3647
0.3598
0.3647
0.3647
0.3698
0.3698
0.3747
0.3747
0.3747
0.3747
0.3747
0.3747
0.3747
0.3747
0.3747
0.3847
0.3898
0.395
0.405
0.405
0.4099
0.4099
0.4099
0.415
0.415
0.405
0.3898
0.3798
0.3798
0.3798
0.3798
0.3798
0.3747
0.3847
0.4397
0.5401
0.6551
0.6949
0.5948
0.4548
0.3798
0.3647
0.3598
0.3598
0.3498
0.3498
0.3498
0.3498
0.3498
0.3547
0.3598
0.3598
0.3598
0.3598
0.3647
0.3647
0.3647
0.3647
0.3647
0.3698
0.3698
0.3747
0.3847
0.3898
0.395
0.3999
0.405
0.4099
0.4099
0.415
0.415
0.415
0.4099
0.4099
0.4099
0.4099
0.4099
0.4099
0.405
0.395
0.3898
0.3898
0.3798
0.3747
0.3747
0.3747
0.3747
0.3698
0.3747
0.3698
0.3698
0.3698
0.3747
0.3798
0.3798
0.3798
0.3798
0.3798
0.3798
0.3798
0.3798
0.3798
0.3847
0.3798
0.3798
0.3747
0.3747
0.3798
0.3847
0.3847
0.3898
0.395
0.395
0.395
0.395
0.395
0.3999
0.3999
0.3999
0.4099
0.415
0.425
0.425
0.4299
0.4299
0.435
0.4397
0.4446
0.4397
0.435
0.4199
0.4099
0.4099
0.405
0.405
0.405
0.405
0.4099
0.4497
0.5349
0.6451
0.7149
0.66
0.5249
0.425
0.3898
0.3847
0.3747
0.3747
0.3747
0.3747
0.3747
0.3798
0.3847
0.3898
0.3898
0.395
0.395
0.3999
0.4099
0.415
0.4199
0.425
0.425
0.425
0.4299
0.435
0.4446
0.4497
0.4548
0.4597
0.4597
0.4648
0.4648
0.4597
0.4597
0.4548
0.4548
0.4497
0.4497
0.4397
0.435
0.425
0.415
0.405
0.3999
0.395
0.3898
0.3847
0.3798
0.3798
0.3798
0.3847
0.3798
0.3798
0.3798
0.3798
0.3847
0.3898
0.3898
0.3898
0.395
0.3898
0.3898
0.395
0.395
0.395
0.395
0.3898
0.3898
0.3898
0.3898
0.3898
0.3898
0.3898
0.395
0.395
0.395
0.3898
0.3898
0.395
0.395
0.395
0.395
0.405
0.4099
0.415
0.415
0.4199
0.425
0.4299
0.4397
0.4397
0.435
0.425
0.405
0.3999
0.395
0.395
0.395
0.3898
0.3898
0.3999
0.4497
0.5449
0.6451
0.6751
0.5799
0.4446
0.3698
0.3498
0.3447
0.3447
0.3398
0.3398
0.3398
0.3398
0.3398
0.3398
0.3398
0.3447
0.3447
0.3498
0.3598
0.3647
0.3698
0.3747
0.3747
0.3847
0.3898
0.395
0.395
0.405
0.415
0.4199
0.425
0.4299
0.435
0.4397
0.4497
0.4497
0.4497
0.4497
0.4497
0.4497
0.4497
0.4397
0.435
0.425
0.415
0.4099
0.405
0.395
0.395
0.3898
0.3847
0.3847
0.3847
0.3847
0.3847
0.3847
0.3847
0.3847
0.3847
0.3847
0.3847
0.3847
0.3847
0.3847
0.3847
0.3847
0.3798
0.3747
0.3747
0.3747
0.3747
0.3698
0.3747
0.3747
0.3747
0.3798
0.3847
0.3847
0.3847
0.3847
0.3847
0.3847
0.3898
0.3898
0.395
0.405
0.405
0.4099
0.4099
0.415
0.415
0.4199
0.425
0.4199
0.4099
0.395
0.3847
0.3847
0.3847
0.3847
0.3847
0.3847
0.3847
0.4299
0.5249
0.6351
0.6898
0.615
0.4797
0.3898
0.3647
0.3647
0.3647
0.3598
0.3547
0.3547
0.3547
0.3598
0.3598
0.3598
0.3598
0.3647
0.3698
0.3747
0.3747
0.3747
0.3747
0.3747
0.3798
0.3847
0.3898
0.395
0.3999
0.405
0.4099
0.415
0.415
0.4199
0.415
0.415
0.415
0.4099
0.4099
0.4099
0.4099
0.405
0.3999
0.395
0.3898
0.3847
0.3747
0.3698
0.3698
0.3647
0.3598
0.3598
0.3598
0.3598
0.3598
0.3598
0.3598
0.3647
0.3647
0.3647
0.3647
0.3647
0.3647
0.3698
0.3698
0.3698
0.3647
0.3647
0.3647
0.3647
0.3647
0.3698
0.3698
0.3698
0.3747
0.3747
0.3747
0.3747
0.3798
0.3847
0.3847
0.3847
0.3847
0.3847
0.3898
0.395
0.405
0.4099
0.415
0.415
0.4199
0.425
0.4299
0.4299
0.425
0.405
0.3898
0.3898
0.3898
0.395
0.3898
0.3898
0.3898
0.4199
0.4897
0.6048
0.6998
0.7049
0.5449
0.4299
0.3798
0.3698
0.3647
0.3598
0.3598
0.3598
0.3598
0.3598
0.3598
0.3647
0.3647
0.3647
0.3698
0.3698
0.3747
0.3747
0.3847
0.3847
0.3898
0.395
0.395
0.405
0.4099
0.415
0.4199
0.4299
0.4299
0.435
0.435
0.435
0.4397
0.4397
0.4446
0.4446
0.4446
0.4446
0.4446
0.4397
0.435
0.4299
0.425
0.415
0.4099
0.4099
0.405
0.405
0.405
0.395
0.395
0.395
0.395
0.395
0.395
0.3999
0.3999
0.405
0.405
0.3999
0.395
0.395
0.3898
0.3898
0.3898
0.3847
0.3847
0.3898
0.3898
0.3898
0.3898
0.3898
0.3898
0.395
0.3999
0.3999
0.3999
0.3999
0.405
0.405
0.405
0.4099
0.4199
0.425
0.4299
0.435
0.435
0.435
0.4397
0.4497
0.4446
0.435
0.415
0.405
0.405
0.405
0.3999
0.395
0.395
0.3999
0.435
0.5249
0.6351
0.6949
0.64
0.4998
0.3999
0.3698
0.3698
0.3647
0.3647
0.3598
0.3547
0.3547
0.3598
0.3598
0.3598
0.3647
0.3698
0.3698
0.3747
0.3747
0.3798
0.3798
0.3847
0.3898
0.395
0.3999
0.405
0.415
0.4199
0.4299
0.435
0.435
0.4397
0.4397
0.4446
0.4497
0.4497
0.4497
0.4446
0.4397
0.4397
0.435
0.4299
0.425
0.415
0.405
0.395
0.395
0.3898
0.3847
0.3847
0.3798
0.3798
0.3798
0.3798
0.3847
0.3798
0.3847
0.3847
0.3847
0.3847
0.3847
0.3847
0.3847
0.3847
0.3798
0.3798
0.3847
0.3847
0.3847
0.3847
0.3847
0.3898
0.3898
0.3898
0.3898
0.3898
0.3898
0.3898
0.395
0.395
0.395
0.395
0.395
0.395
0.405
0.405
0.4099
0.415
0.425
0.425
0.4299
0.435
0.435
0.4299
0.4099
0.3999
0.395
0.395
0.395
0.395
0.395
0.395
0.435
0.5149
0.6299
0.6949
0.6551
0.52
0.415
0.3747
0.3698
0.3698
0.3647
0.3598
0.3598
0.3598
0.3598
0.3598
0.3598
0.3598
0.3647
0.3698
0.3698
0.3747
0.3798
0.3847
0.3847
0.3898
0.3898
0.3898
0.395
0.3999
0.405
0.415
0.4199
0.425
0.425
0.4299
0.4299
0.4299
0.4299
0.4299
0.425
0.425
0.415
0.4099
0.405
0.395
0.3847
0.3747
0.3698
0.3647
0.3698
0.3698
0.3647
0.3647
0.3647
0.3698
0.3698
0.3747
0.3847
0.3747
0.3698
0.3647
0.3647
0.3647
0.3647
0.3647
0.3647
0.3598
0.3598
0.3598
0.3598
0.3598
0.395
0.4849
0.6048
0.6803
0.6299
0.4897
0.3847
0.3447
0.3447
0.3447
0.3398
0.3346
0.3346
0.3346
0.3346
0.3398
0.3447
0.3498
0.3498
0.3498
0.3598
0.3598
0.3598
0.3647
0.3647
0.3647
0.3698
0.3747
0.3798
0.3847
0.3847
0.3898
0.395
0.395
0.395
0.3999
0.395
0.3999
0.405
0.3999
0.395
0.3898
0.3847
0.3798
0.3747
0.3698
0.3647
0.3598
0.3498
0.3447
0.3447
0.3498
0.3547
0.3598
0.3598
0.3598
0.3598
0.3598
0.3598
0.3647
0.3647
0.3647
0.3647
0.3647
0.3598
0.3598
0.3598
0.3647
0.3647
0.3647
0.3647
0.3698
0.3698
0.3698
0.3698
0.3698
0.3698
0.3747
0.3747
0.3847
0.3847
0.3847
0.3898
0.3898
0.3898
0.3898
0.3898
0.3898
0.3898
0.3898
0.3898
0.3898
0.3898
0.3898
0.3898
0.3898
0.395
0.395
0.395
0.395
0.395
0.395
0.395
0.395
0.3999
0.405
0.415
0.415
0.425
0.425
0.425
0.4299
0.4299
0.425
0.4099
0.395
0.3898
0.3898
0.3898
0.3898
0.3898
0.3898
0.3999
0.4597
0.5647
0.6751
0.7098
0.6099
0.4797
0.4099
0.3847
0.3747
0.3698
0.3647
0.3598
0.3598
0.3598
0.3598
0.3598
0.3598
0.3598
0.3598
0.3647
0.3647
0.3698
0.3747
0.3747
0.3798
0.3847
0.3847
0.3898
0.395
0.3999
0.4099
0.415
0.425
0.425
0.425
0.4299
0.435
0.4397
0.4397
0.4397
0.4397
0.4446
0.4397
0.435
0.4299
0.425
0.415
0.4099
0.405
0.405
0.3999
0.395
0.3898
0.3898
0.3898
0.3898
0.3847
0.3847
0.3847
0.3847
0.3898
0.3898
0.3898
0.3898
0.3898
0.3898
0.3898
0.3898
0.3847
0.3847
0.3798
0.3747
0.3798
0.3798
0.3798
0.3847
0.3847
0.3898
0.395
0.395
0.395
0.395
0.395
0.395
0.3999
0.3999
0.3999
0.3999
0.405
0.4099
0.415
0.425
0.4299
0.4299
0.435
0.435
0.4397
0.4397
0.435
0.425
0.405
0.405
0.405
0.405
0.405
0.405
0.405
0.425
0.4849
0.5948
0.6898
0.7049
0.5747
0.4497
0.395
0.3847
0.3847
0.3798
0.3747
0.3747
0.3698
0.3698
0.3747
0.3747
0.3747
0.3747
0.3747
0.3798
0.3798
0.3847
0.3847
0.3898
0.3898
0.395
0.3999
0.405
0.4099
0.415
0.4199
0.4299
0.435
0.435
0.4397
0.4397
0.435
0.435
0.435
0.435
0.435
0.4299
0.425
0.415
0.405
0.395
0.3898
0.3847
0.3847
0.3798
0.3798
0.3747
0.3747
0.3698
0.3698
0.3698
0.3747
0.3747
0.3798
0.3798
0.3798
0.3798
0.3847
0.3798
0.3847
0.3847
0.3847
0.3847
0.3847
0.3847
0.3798
0.3798
0.3798
0.3847
0.3847
0.3847
0.3898
0.3898
0.395
0.395
0.395
0.3999
0.3999
0.395
0.395
0.395
0.3999
0.405
0.405
0.405
0.4099
0.415
0.4199
0.425
0.4299
0.4299
0.435
0.4397
0.4397
0.425
0.4099
0.405
0.405
0.405
0.3999
0.3999
0.395
0.415
0.4797
0.5799
0.6702
0.6898
0.5601
0.435
0.3747
0.3647
0.3647
0.3647
0.3647
0.3598
0.3598
0.3598
0.3598
0.3647
0.3698
0.3698
0.3698
0.3698
0.3747
0.3798
0.3847
0.3847
0.3847
0.3847
0.3847
0.3898
0.3898
0.395
0.3999
0.405
0.4099
0.4099
0.4099
0.4099
0.4099
0.4099
0.4099
0.4099
0.405
0.405
0.3999
0.395
0.3898
0.3798
0.3747
0.3698
0.3647
0.3647
0.3647
0.3647
0.3647
0.3647
0.3698
0.3698
0.3747
0.3747
0.3747
0.3747
0.3747
0.3747
0.3747
0.3798
0.3747
0.3747
0.3747
0.3698
0.3698
0.3698
0.3698
0.3698
0.3698
0.3647
0.3647
0.3647
0.3647
0.3698
0.3698
0.3698
0.3698
0.3698
0.3698
0.3698
0.3647
0.3647
0.3647
0.3698
0.3747
0.3847
0.3898
0.395
0.405
0.405
0.4099
0.415
0.415
0.4099
0.395
0.3847
0.3747
0.3747
0.3747
0.3747
0.3747
0.3798
0.3847
0.435
0.5349
0.6451
0.6949
0.6048
0.4648
0.3798
0.3598
0.3547
0.3498
0.3447
0.3398
0.3398
0.3398
0.3398
0.3447
0.3447
0.3498
0.3498
0.3498
0.3547
0.3547
0.3598
0.3647
0.3647
0.3698
0.3698
0.3747
0.3798
0.3847
0.395
0.3999
0.405
0.4099
0.4099
0.415
0.415
0.415
0.415
0.415
0.415
0.415
0.415
0.4099
0.405
0.3999
0.395
0.3898
0.3847
0.3847
0.3798
0.3747
0.3747
0.3747
0.3747
0.3747
0.3747
0.3747
0.3798
0.3798
0.3798
0.3798
0.3847
0.3847
0.3898
0.395
0.395
0.3898
0.3898
0.3847
0.3847
0.3847
0.3847
0.3847
0.3898
0.3898
0.3898
0.3898
0.395
0.395
0.405
0.405
0.405
0.405
0.405
0.405
0.4099
0.4099
0.415
0.425
0.4299
0.435
0.4397
0.4446
0.4446
0.4497
0.4497
0.4397
0.425
0.415
0.4099
0.4099
0.4099
0.415
0.4099
0.4099
0.4397
0.5149
0.6299
0.7098
0.7149
0.5501
0.4397
0.3999
0.3898
0.3898
0.3847
0.3747
0.3698
0.3698
0.3747
0.3798
0.3847
0.3847
0.3847
0.3898
0.3898
0.395
0.395
0.395
0.3999
0.3999
0.405
0.4099
0.415
0.425
0.4299
0.435
0.4397
0.4397
0.4446
0.4497
0.4497
0.4497
0.4497
0.4497
0.4497
0.4497
0.4397
0.435
0.4299
0.425
0.4199
0.4099
0.405
0.3999
0.395
0.3898
0.3898
0.3898
0.3898
0.3847
0.3847
0.3898
0.3898
0.3898
0.3898
0.3898
0.3898
0.395
0.395
0.395
0.395
0.395
0.395
0.3898
0.3898
0.3898
0.3898
0.3898
0.3898
0.3898
0.3898
0.395
0.395
0.395
0.395
0.3999
0.3999
0.3999
0.405
0.405
0.405
0.405
0.4099
0.415
0.4199
0.4199
0.425
0.4299
0.4397
0.4446
0.4497
0.4397
0.4299
0.415
0.4099
0.405
0.405
0.405
0.3999
0.3999
0.4099
0.4648
0.5647
0.6651
0.6949
0.6048
0.4748
0.395
0.3747
0.3747
0.3747
0.3698
0.3647
0.3647
0.3647
0.3647
0.3647
0.3698
0.3747
0.3798
0.3798
0.3847
0.3847
0.3898
0.395
0.395
0.395
0.3999
0.405
0.405
0.415
0.4199
0.425
0.4299
0.435
0.4397
0.4397
0.4397
0.4397
0.435
0.435
0.435
0.4299
0.425
0.4199
0.4099
0.405
0.395
0.3847
0.3847
0.3747
0.3747
0.3747
0.3698
0.3698
0.3698
0.3698
0.3698
0.3698
0.3698
0.3698
0.3747
0.3747
0.3747
0.3747
0.3747
0.3747
0.3747
0.3747
0.3698
0.3698
0.3698
0.3647
0.3647
0.3647
0.3647
0.3698
0.3698
0.3698
0.3698
0.3698
0.3698
0.3698
0.3747
0.3747
0.3747
0.3747
0.3747
0.3847
0.3898
0.395
0.3999
0.405
0.4099
0.4199
0.425
0.4299
0.4299
0.425
0.4099
0.3999
0.3999
0.395
0.395
0.395
0.395
0.395
0.435
0.52
0.6351
0.6998
0.6451
0.5049
0.3999
0.3698
0.3647
0.3647
0.3598
0.3547
0.3498
0.3498
0.3498
0.3547
0.3547
0.3547
0.3547
0.3547
0.3598
0.3598
0.3647
0.3647
0.3698
0.3698
0.3747
0.3798
0.3847
0.3847
0.3898
0.395
0.405
0.405
0.405
0.405
0.4099
0.4099
0.4099
0.4099
0.4099
0.4099
0.4099
0.405
0.395
0.3898
0.3798
0.3747
0.3698
0.3647
0.3647
0.3647
0.3598
0.3547
0.3498
0.3498
0.3547
0.3547
0.3498
0.3547
0.3598
0.3598
0.3598
0.3598
0.3598
0.3598
0.3598
0.3547
0.3498
0.3498
0.3498
0.3498
0.3498
0.3498
0.3547
0.3598
0.3647
0.3647
0.3698
0.3698
0.3698
0.3698
0.3698
0.3698
0.3698
0.3698
0.3747
0.3847
0.3898
0.395
0.405
0.405
0.4099
0.415
0.415
0.425
0.415
0.3999
0.3898
0.3847
0.3898
0.3898
0.3898
0.3847
0.3847
0.405
0.4697
0.5799
0.6849
0.6949
0.5647
0.4397
0.3847
0.3698
0.3647
0.3647
0.3598
0.3547
0.3498
0.3498
0.3598
0.3647
0.3647
0.3647
0.3647
0.3698
0.3747
0.3798
0.3847
0.3898
0.3898
0.395
0.395
0.405
0.4099
0.415
0.4199
0.4299
0.435
0.435
0.435
0.435
0.4299
0.4299
0.4299
0.4299
0.4299
0.425
0.4199
0.415
0.4099
0.405
0.3999
0.395
0.3898
0.3847
0.3847
0.3798
0.3798
0.3798
0.3798
0.3847
0.3847
0.3847
0.3847
0.3847
0.3898
0.3898
0.3898
0.3898
0.3898
0.3898
0.3898
0.3898
0.3898
0.3847
0.3847
0.3847
0.3847
0.3847
0.3847
0.3847
0.3847
0.3898
0.3898
0.3898
0.395
0.395
0.395
0.395
0.3999
0.3999
0.405
0.4099
0.4099
0.415
0.4199
0.425
0.4299
0.435
0.4397
0.4397
0.4299
0.4099
0.3999
0.395
0.3999
0.3999
0.3999
0.3999
0.405
0.435
0.52
0.6299
0.6998
0.65
0.5149
0.415
0.3798
0.3747
0.3698
0.3698
0.3647
0.3647
0.3647
0.3647
0.3647
0.3698
0.3698
0.3747
0.3747
0.3798
0.3798
0.3847
0.3847
0.3898
0.3898
0.395
0.3999
0.405
0.4099
0.415
0.425
0.4299
0.435
0.435
0.435
0.435
0.4299
0.4299
0.4299
0.4299
0.4299
0.4299
0.425
0.4199
0.415
0.4099
0.3999
0.3898
0.3847
0.3847
0.3798
0.3798
0.3747
0.3747
0.3747
0.3747
0.3798
0.3798
0.3747
0.3747
0.3747
0.3798
0.3798
0.3798
0.3847
0.3847
0.3798
0.3798
0.3798
0.3798
0.3798
0.3798
0.3798
0.3847
0.3847
0.3847
0.3847
0.3898
0.3898
0.3898
0.3898
0.3898
0.3898
0.3898
0.395
0.395
0.3999
0.405
0.4099
0.4099
0.415
0.4199
0.425
0.435
0.4397
0.435
0.4199
0.405
0.395
0.395
0.395
0.395
0.395
0.395
0.405
0.4548
0.5501
0.6551
0.6898
0.5999
0.4648
0.3798
0.3647
0.3598
0.3598
0.3598
0.3498
0.3498
0.3498
0.3498
0.3498
0.3498
0.3547
0.3547
0.3598
0.3598
0.3647
0.3698
0.3747
0.3747
0.3747
0.3798
0.3847
0.3898
0.395
0.3999
0.405
0.4099
0.415
0.4199
0.425
0.4199
0.4199
0.4199
0.4199
0.415
0.415
0.4099
0.405
0.3999
0.3898
0.3847
0.3798
0.3747
0.3747
0.3698
0.3698
0.3647
0.3598
0.3598
0.3598
0.3647
0.3647
0.3598
0.3598
0.3647
0.3698
0.3698
0.3647
0.3647
0.3647
0.3647
0.3647
0.3698
0.3698
0.3698
0.3698
0.3698
0.3698
0.3698
0.3747
0.3798
0.3798
0.3847
0.3798
0.3798
0.3798
0.3847
0.3898
0.3898
0.3898
0.395
0.3999
0.405
0.4099
0.415
0.415
0.415
0.4199
0.425
0.4299
0.425
0.4099
0.395
0.3898
0.3847
0.3847
0.3847
0.3798
0.3798
0.3999
0.4648
0.5699
0.6702
0.6898
0.5501
0.4199
0.3598
0.3447
0.3447
0.3398
0.3295
0.3295
0.3246
0.3246
0.3295
0.3295
0.3346
0.3398
0.3398
0.3398
0.3447
0.3498
0.3498
0.3498
0.3598
0.3598
0.3647
0.3698
0.3747
0.3847
0.3898
0.395
0.395
0.3999
0.3999
0.405
0.405
0.405
0.405
0.405
0.405
0.405
0.405
0.3999
0.395
0.3847
0.3798
0.3747
0.3747
0.3747
0.3747
0.3698
0.3698
0.3698
0.3698
0.3698
0.3698
0.3747
0.3747
0.3747
0.3847
0.3847
0.3898
0.3898
0.3898
0.3898
0.3898
0.3847
0.3847
0.3847
0.3847
0.3898
0.3898
0.3898
0.3898
0.395
0.395
0.3999
0.3999
0.3999
0.3999
0.405
0.405
0.4099
0.4099
0.4099
0.415
0.425
0.4299
0.435
0.435
0.4397
0.4446
0.4497
0.4548
0.4497
0.435
0.4199
0.415
0.4099
0.4099
0.4099
0.4099
0.4099
0.4299
0.4949
0.5948
0.6898
0.7149
0.5948
0.4648
0.405
0.3898
0.3847
0.3798
0.3747
0.3747
0.3747
0.3698
0.3747
0.3798
0.3847
0.3847
0.3847
0.3898
0.3898
0.395
0.395
0.3999
0.405
0.405
0.4099
0.415
0.4199
0.425
0.435
0.435
0.4397
0.4397
0.4446
0.4446
0.4397
0.4397
0.4397
0.4397
0.4397
0.435
0.4299
0.4299
0.425
0.415
0.4099
0.3999
0.395
0.3898
0.3847
0.3847
0.3847
0.3798
0.3847
0.3847
0.3898
0.3898
0.395
0.395
0.3999
0.395
0.395
0.395
0.395
0.395
0.395
0.395
0.395
0.3898
0.3898
0.3898
0.3898
0.395
0.395
0.395
0.395
0.3999
0.405
0.405
0.405
0.405
0.405
0.405
0.405
0.405
0.405
0.4099
0.4099
0.415
0.4199
0.425
0.4299
0.4299
0.435
0.4397
0.435
0.415
0.405
0.405
0.405
0.405
0.405
0.405
0.405
0.4397
0.52
0.6299
0.6998
0.66
0.53
0.425
0.3847
0.3747
0.3747
0.3747
0.3698
0.3647
0.3647
0.3647
0.3698
0.3747
0.3747
0.3747
0.3747
0.3798
0.3847
0.3898
0.3898
0.395
0.395
0.395
0.405
0.4099
0.415
0.4199
0.425
0.4299
0.435
0.435
0.435
0.4397
0.435
0.435
0.4299
0.4299
0.4299
0.4299
0.425
0.415
0.4099
0.405
0.395
0.3898
0.3898
0.3847
0.3747
0.3747
0.3747
0.3747
0.3747
0.3847
0.3798
0.3798
0.3798
0.3798
0.3798
0.3798
0.3798
0.3847
0.3847
0.3847
0.3798
0.3747
0.3747
0.3747
0.3747
0.3747
0.3747
0.3747
0.3747
0.3798
0.3798
0.3798
0.3798
0.3847
0.3847
0.3847
0.3847
0.3847
0.3847
0.3798
0.3847
0.3847
0.3898
0.395
0.395
0.3999
0.405
0.4099
0.4099
0.4099
0.3999
0.3847
0.3747
0.3747
0.3747
0.3798
0.3747
0.3747
0.3798
0.425
0.5149
0.6199
0.6751
0.6048
0.4697
0.3798
0.3547
0.3498
0.3447
0.3447
0.3398
0.3398
0.3398
0.3447
0.3447
0.3447
0.3498
0.3547
0.3547
0.3598
0.3598
0.3647
0.3647
0.3698
0.3698
0.3747
0.3747
0.3847
0.3898
0.395
0.3999
0.405
0.4099
0.4099
0.405
0.405
0.405
0.405
0.405
0.405
0.3999
0.3999
0.3898
0.3847
0.3747
0.3698
0.3647
0.3598
0.3598
0.3598
0.3598
0.3598
0.3598
0.3598
0.3598
0.3647
0.3647
0.3647
0.3647
0.3647
0.3698
0.3698
0.3747
0.3747
0.3698
0.3698
0.3747
0.3747
0.3747
0.3698
0.3698
0.3698
0.3698
0.3698
0.3698
0.3747
0.3747
0.3798
0.3847
0.3847
0.3847
0.3898
0.3898
0.3898
0.3898
0.3898
0.395
0.405
0.4099
0.415
0.415
0.415
0.425
0.425
0.4299
0.415
0.3999
0.3898
0.3898
0.3898
0.3898
0.3898
0.3847
0.3898
0.4299
0.52
0.6351
0.6998
0.64
0.4998
0.3999
0.3698
0.3598
0.3598
0.3547
0.3498
0.3498
0.3547
0.3547
0.3547
0.3598
0.3598
0.3647
0.3698
0.3698
0.3747
0.3747
0.3798
0.3847
0.395
0.3999
0.405
0.4099
0.415
0.415
0.4199
0.425
0.425
0.4299
0.4299
0.435
0.435
0.435
0.435
0.435
0.435
0.435
0.435
0.4299
0.425
0.415
0.405
0.405
0.395
0.395
0.395
0.395
0.3898
0.3898
0.3898
0.395
0.395
0.395
0.395
0.395
0.395
0.395
0.395
0.395
0.395
0.395
0.395
0.3898
0.3898
0.3898
0.3847
0.3847
0.3847
0.3898
0.3898
0.3898
0.3898
0.3898
0.3898
0.395
0.395
0.395
0.3999
0.3999
0.395
0.3999
0.4099
0.415
0.4199
0.425
0.4299
0.4299
0.435
0.4397
0.4446
0.435
0.415
0.405
0.405
0.3999
0.3999
0.3999
0.3999
0.405
0.435
0.5149
0.6299
0.7049
0.6651
0.53
0.425
0.3847
0.3798
0.3747
0.3698
0.3698
0.3647
0.3647
0.3647
0.3698
0.3698
0.3747
0.3747
0.3798
0.3847
0.3898
0.3898
0.395
0.3999
0.405
0.405
0.405
0.4099
0.415
0.4199
0.425
0.4299
0.4299
0.435
0.435
0.435
0.435
0.435
0.435
0.435
0.4299
0.4299
0.425
0.415
0.4099
0.3999
0.3898
0.3847
0.3747
0.3747
0.3747
0.3747
0.3747
0.3747
0.3747
0.3747
0.3747
0.3747
0.3747
0.3747
0.3798
0.3847
0.3847
0.3847
0.3798
0.3798
0.3798
0.3798
0.3798
0.3798
0.3798
0.3798
0.3847
0.3847
0.3847
0.3847
0.3898
0.3898
0.3898
0.395
0.395
0.3999
0.3999
0.3999
0.3999
0.3999
0.405
0.4099
0.4099
0.415
0.4199
0.425
0.4299
0.435
0.4397
0.4446
0.425
0.4099
0.405
0.405
0.405
0.4099
0.4099
0.4099
0.425
0.4897
0.5948
0.6898
0.7098
0.5848
0.4497
0.3798
0.3698
0.3647
0.3647
0.3598
0.3498
0.3498
0.3498
0.3498
0.3498
0.3498
0.3547
0.3547
0.3547
0.3598
0.3598
0.3598
0.3598
0.3598
0.3647
0.3698
0.3747
0.3847
0.3898
0.395
0.405
0.4099
0.415
0.4199
0.4199
0.4199
0.4199
0.425
0.425
0.425
0.4199
0.415
0.4099
0.3999
0.395
0.3847
0.3798
0.3747
0.3698
0.3647
0.3647
0.3647
0.3647
0.3647
0.3647
0.3647
0.3647
0.3647
0.3647
0.3647
0.3647
0.3647
0.3647
0.3647
0.3598
0.3547
0.3498
0.3498
0.3498
0.3447
0.3447
0.3447
0.3447
0.3498
0.3547
0.3598
0.3598
0.3598
0.3598
0.3598
0.3647
0.3647
0.3647
0.3647
0.3647
0.3647
0.3747
0.3847
0.3898
0.395
0.395
0.3999
0.405
0.4099
0.4099
0.405
0.3898
0.3747
0.3747
0.3747
0.3747
0.3747
0.3747
0.3798
0.4199
0.5049
0.6199
0.6949
0.6451
0.51
0.4099
0.3698
0.3647
0.3647
0.3598
0.3598
0.3598
0.3598
0.3598
0.3647
0.3647
0.3647
0.3647
0.3647
0.3647
0.3698
0.3747
0.3747
0.3798
0.3847
0.3898
0.395
0.3999
0.405
0.405
0.4099
0.415
0.415
0.415
0.4199
0.4199
0.415
0.415
0.415
0.415
0.415
0.4199
0.415
0.4099
0.405
0.3999
0.395
0.3898
0.3847
0.3798
0.3747
0.3747
0.3747
0.3747
0.3747
0.3747
0.3798
0.3798
0.3798
0.3798
0.3798
0.3847
0.3847
0.3847
0.3847
0.3847
0.3847
0.3847
0.3798
0.3798
0.3798
0.3798
0.3847
0.3847
0.3898
0.3898
0.3898
0.395
0.395
0.395
0.395
0.3999
0.405
0.405
0.405
0.4099
0.4199
0.425
0.4299
0.4299
0.435
0.435
0.4397
0.4497
0.4446
0.4299
0.415
0.4099
0.4099
0.4099
0.4099
0.4099
0.4099
0.4299
0.4897
0.5899
0.6949
0.725
0.6099
0.4797
0.4099
0.3898
0.3898
0.3847
0.3847
0.3798
0.3747
0.3747
0.3798
0.3847
0.3847
0.3847
0.3898
0.395
0.395
0.395
0.3999
0.405
0.405
0.4099
0.4099
0.415
0.425
0.4299
0.435
0.4397
0.4397
0.4446
0.4446
0.4446
0.4446
0.4397
0.4397
0.4446
0.4446
0.4397
0.4397
0.435
0.4299
0.425
0.415
0.4099
0.3999
0.395
0.395
0.395
0.3898
0.3898
0.395
0.3898
0.3898
0.3898
0.3898
0.395
0.395
0.395
0.395
0.395
0.395
0.3898
0.3898
0.3898
0.3898
0.3898
0.3898
0.3898
0.3898
0.3898
0.3898
0.395
0.395
0.395
0.3999
0.3999
0.3999
0.3999
0.405
0.405
0.405
0.405
0.4099
0.4199
0.425
0.4299
0.4299
0.435
0.4397
0.4446
0.4497
0.4397
0.425
0.405
0.405
0.405
0.405
0.405
0.405
0.405
0.425
0.4897
0.5948
0.6898
0.7049
0.5747
0.4446
0.3898
0.3798
0.3747
0.3747
0.3698
0.3647
0.3647
0.3647
0.3647
0.3647
0.3698
0.3747
0.3747
0.3798
0.3847
0.3847
0.3898
0.3898
0.395
0.3999
0.405
0.4099
0.415
0.425
0.4299
0.435
0.4397
0.4446
0.4446
0.4446
0.4446
0.4397
0.4397
0.435
0.435
0.435
0.4299
0.425
0.415
0.4099
0.3999
0.395
0.3898
0.3847
0.3798
0.3747
0.3747
0.3747
0.3747
0.3747
0.3798
0.3847
0.3847
0.3847
0.3847
0.3847
0.3847
0.3847
0.3847
0.3847
0.3847
0.3798
0.3747
0.3747
0.3747
0.3747
0.3747
0.3747
0.3798
0.3798
0.3798
0.3798
0.3798
0.3847
0.3847
0.3847
0.3847
0.3847
0.3898
0.3898
0.3898
0.395
0.3999
0.405
0.4099
0.4099
0.415
0.425
0.425
0.4199
0.405
0.3898
0.3847
0.3847
0.3847
0.3798
0.3798
0.3798
0.3898
0.4446
0.5449
0.6451
0.6751
0.5747
0.4446
0.3698
0.3598
0.3547
0.3547
0.3447
0.3447
0.3447
0.3447
0.3447
0.3498
0.3498
0.3547
0.3598
0.3598
0.3598
0.3647
0.3647
0.3647
0.3647
0.3698
0.3747
0.3747
0.3847
0.3898
0.3898
0.3999
0.405
0.405
0.4099
0.4099
0.4099
0.405
0.405
0.405
0.3999
0.395
0.395
0.3898
0.3847
0.3747
0.3698
0.3598
0.3598
0.3598
0.3547
0.3498
0.3498
0.3447
0.3498
0.3498
0.3498
0.3498
0.3547
0.3498
0.3547
0.3598
0.3647
0.3698
0.3647
0.3647
0.3598
0.3598
0.3598
0.3598
0.3598
0.3598
0.3598
0.3647
0.3647
0.3647
0.3647
0.3647
0.3698
0.3698
0.3698
0.3698
0.3698
0.3698
0.3698
0.3747
0.3847
0.395
0.3999
0.405
0.4099
0.415
0.415
0.415
0.4199
0.415
0.405
0.3898
0.3847
0.3847
0.3847
0.3798
0.3747
0.3747
0.3999
0.4648
0.5747
0.6751
0.6949
0.5601
0.425
0.3698
0.3598
0.3598
0.3547
0.3547
0.3547
0.3498
0.3547
0.3598
0.3598
0.3647
0.3647
0.3647
0.3698
0.3698
0.3747
0.3798
0.3847
0.3847
0.3847
0.3898
0.395
0.3999
0.405
0.4099
0.415
0.4199
0.425
0.425
0.425
0.425
0.425
0.425
0.4299
0.4299
0.4299
0.4299
0.425
0.415
0.4099
0.3999
0.395
0.3898
0.3898
0.3847
0.3898
0.3847
0.3847
0.3847
0.3847
0.3847
0.3847
0.3847
0.3847
0.3847
0.3898
0.3898
0.3898
0.3898
0.3898
0.3898
0.3847
0.3847
0.3798
0.3798
0.3798
0.3847
0.3847
0.3847
0.3898
0.3898
0.3898
0.3898
0.395
0.395
0.395
0.395
0.3999
0.3999
0.405
0.4099
0.415
0.4199
0.425
0.425
0.4299
0.435
0.435
0.4397
0.435
0.4199
0.405
0.405
0.405
0.405
0.405
0.3999
0.405
0.4299
0.5049
0.6099
0.6998
0.7049
0.5501
0.4397
0.3898
0.3847
0.3847
0.3847
0.3798
0.3747
0.3747
0.3798
0.3847
0.3847
0.3898
0.3898
0.3898
0.395
0.395
0.3999
0.405
0.405
0.405
0.4099
0.4099
0.415
0.415
0.4199
0.425
0.425
0.4299
0.4299
0.4299
0.4299
0.4299
0.425
0.425
0.425
0.4199
0.415
0.4099
0.3999
0.395
0.3898
0.3798
0.3698
0.3698
0.3647
0.3647
0.3698
0.3647
0.3647
0.3698
0.3698
0.3698
0.3747
0.3747
0.3798
0.3798
0.3847
0.3847
0.3847
0.3847
0.3847
0.3898
0.3898
0.3847
0.3798
0.3798
0.3747
0.3747
0.3747
0.3747
0.3747
0.3747
0.3747
0.3747
0.3747
0.3747
0.3798
0.3798
0.3798
0.3747
0.3798
0.3847
0.3898
0.395
0.3999
0.405
0.4099
0.4099
0.415
0.415
0.4099
0.395
0.3798
0.3747
0.3747
0.3698
0.3698
0.3647
0.3647
0.3847
0.4497
0.5552
0.6451
0.66
0.5249
0.3999
0.3447
0.3398
0.3346
0.3346
0.3346
0.3295
0.3295
0.3346
0.3398
0.3398
0.3398
0.3447
0.3447
0.3447
0.3447
0.3498
0.3498
0.3598
0.3647
0.3698
0.3698
0.3747
0.3747
0.3847
0.3898
0.395
0.395
0.3999
0.405
0.405
0.405
0.405
0.405
0.405
0.405
0.405
0.3999
0.395
0.3847
0.3847
0.3798
0.3747
0.3698
0.3647
0.3647
0.3598
0.3598
0.3598
0.3647
0.3647
0.3647
0.3647
0.3647
0.3647
0.3647
0.3647
0.3647
0.3647
0.3647
0.3647
0.3647
0.3647
0.3647
0.3647
0.3647
0.3647
0.3698
0.3698
0.3747
0.3747
0.3747
0.3798
0.3798
0.3847
0.3898
0.3898
0.3898
0.3898
0.3898
0.395
0.3999
0.4099
0.415
0.4199
0.425
0.425
0.425
0.4299
0.435
0.4299
0.415
0.405
0.3999
0.3999
0.395
0.395
0.3999
0.405
0.4299
0.5049
0.6199
0.7049
0.7098
0.5449
0.435
0.3847
0.3747
0.3698
0.3647
0.3647
0.3647
0.3647
0.3698
0.3698
0.3747
0.3747
0.3747
0.3798
0.3847
0.3898
0.3898
0.395
0.395
0.3999
0.405
0.405
0.4099
0.415
0.4199
0.425
0.4299
0.4299
0.435
0.4397
0.4446
0.4446
0.4446
0.4397
0.4446
0.4397
0.4397
0.435
0.435
0.4299
0.425
0.415
0.4099
0.4099
0.405
0.3999
0.3999
0.3999
0.395
0.395
0.395
0.395
0.395
0.395
0.395
0.395
0.3999
0.405
0.405
0.405
0.405
0.405
0.3999
0.395
0.395
0.395
0.395
0.395
0.395
0.3999
0.405
0.405
0.4099
0.4099
0.4099
0.415
0.415
0.415
0.415
0.415
0.415
0.4199
0.4299
0.435
0.4397
0.4397
0.4497
0.4497
0.4548
0.4597
0.4548
0.4397
0.425
0.4199
0.4199
0.4199
0.4199
0.415
0.4199
0.4397
0.51
0.6199
0.7098
0.7198
0.5747
0.4548
0.405
0.395
0.395
0.3898
0.3847
0.3798
0.3747
0.3747
0.3798
0.3847
0.3847
0.3847
0.3898
0.395
0.395
0.395
0.3999
0.405
0.405
0.4099
0.415
0.415
0.425
0.4299
0.435
0.435
0.4397
0.4446
0.4497
0.4497
0.4497
0.4497
0.4497
0.4497
0.4446
0.4397
0.435
0.4299
0.425
0.415
0.4099
0.405
0.395
0.3898
0.3847
0.3847
0.3847
0.3847
0.3847
0.3898
0.3898
0.3898
0.3898
0.3898
0.395
0.395
0.395
0.395
0.395
0.395
0.395
0.395
0.395
0.3898
0.395
0.395
0.395
0.395
0.395
0.395
0.395
0.395
0.395
0.3999
0.3999
0.3999
0.3999
0.3999
0.3999
0.405
0.405
0.4099
0.415
0.425
0.425
0.4299
0.435
0.435
0.4397
0.4446
0.435
0.415
0.4099
0.4099
0.4099
0.4099
0.4099
0.4099
0.4199
0.4648
0.5601
0.6651
0.6998
0.615
0.4748
0.395
0.3798
0.3747
0.3747
0.3698
0.3647
0.3598
0.3598
0.3598
0.3647
0.3698
0.3698
0.3698
0.3698
0.3698
0.3747
0.3798
0.3798
0.3798
0.3798
0.3847
0.3847
0.3898
0.395
0.405
0.4099
0.415
0.4199
0.425
0.425
0.425
0.425
0.4199
0.4199
0.415
0.415
0.415
0.4099
0.405
0.3999
0.395
0.3898
0.3847
0.3847
0.3798
0.3798
0.3747
0.3747
0.3747
0.3747
0.3747
0.3747
0.3747
0.3747
0.3747
0.3747
0.3747
0.3747
0.3698
0.3698
0.3698
0.3698
0.3698
0.3698
0.3698
0.3698
0.3698
0.3698
0.3698
0.3747
0.3747
0.3798
0.3798
0.3798
0.3847
0.3847
0.3847
0.3898
0.395
0.395
0.395
0.405
0.4099
0.415
0.4199
0.4199
0.425
0.425
0.4299
0.4299
0.4299
0.415
0.395
0.3898
0.3847
0.3847
0.3898
0.3898
0.3898
0.4099
0.4748
0.5848
0.6849
0.7049
0.5601
0.425
0.3698
0.3547
0.3498
0.3498
0.3447
0.3447
0.3398
0.3398
0.3398
0.3398
0.3398
0.3398
0.3447
0.3447
0.3447
0.3447
0.3498
0.3498
0.3547
0.3547
0.3598
0.3647
0.3698
0.3747
0.3847
0.3847
0.3898
0.3898
0.395
0.395
0.3999
0.405
0.405
0.405
0.405
0.405
0.395
0.3898
0.3898
0.3847
0.3798
0.3747
0.3747
0.3747
0.3698
0.3698
0.3698
0.3698
0.3647
0.3698
0.3698
0.3747
0.3747
0.3747
0.3747
0.3747
0.3747
0.3798
0.3798
0.3847
0.3798
0.3747
0.3747
0.3747
0.3747
0.3747
0.3747
0.3798
0.3847
0.3847
0.3898
0.3898
0.3898
0.395
0.395
0.395
0.3999
0.405
0.405
0.405
0.4099
0.415
0.425
0.425
0.4299
0.4299
0.435
0.4397
0.4497
0.4397
0.425
0.405
0.3999
0.395
0.3999
0.3999
0.395
0.395
0.4199
0.4797
0.5899
0.6898
0.7098
0.5848
0.4548
0.395
0.3798
0.3747
0.3747
0.3747
0.3698
0.3647
0.3647
0.3698
0.3698
0.3747
0.3747
0.3798
0.3847
0.3847
0.3898
0.3898
0.395
0.395
0.3999
0.405
0.4099
0.4099
0.415
0.425
0.4299
0.435
0.435
0.435
0.435
0.435
0.435
0.435
0.435
0.435
0.435
0.4299
0.425
0.4199
0.415
0.4099
0.405
0.395
0.3898
0.3898
0.3847
0.3798
0.3798
0.3798
0.3798
0.3798
0.3847
0.3847
0.3847
0.3847
0.3847
0.3847
0.3898
0.3847
0.3847
0.3847
0.3847
0.3847
0.3847
0.3847
0.3847
0.3798
0.3847
0.3847
0.3898
0.3898
0.395
0.395
0.395
0.395
0.3999
0.3999
0.3999
0.3999
0.405
0.405
0.4099
0.415
0.4199
0.425
0.425
0.425
0.4299
0.435
0.4397
0.4299
0.4099
0.3999
0.395
0.395
0.395
0.395
0.395
0.3999
0.4397
0.53
0.6351
0.6898
0.6299
0.4998
0.405
0.3747
0.3698
0.3647
0.3598
0.3598
0.3547
0.3498
0.3547
0.3598
0.3647
0.3698
0.3698
0.3698
0.3747
0.3747
0.3747
0.3847
0.3898
0.3898
0.3898
0.3898
0.395
0.405
0.4099
0.415
0.425
0.425
0.4299
0.4299
0.4299
0.4299
0.4299
0.4299
0.4299
0.425
0.4199
0.4099
0.405
0.395
0.3898
0.3847
0.3798
0.3747
0.3698
0.3647
0.3647
0.3647
0.3647
0.3698
0.3698
0.3698
0.3698
0.3698
0.3698
0.3698
0.3698
0.3747
0.3747
0.3747
0.3747
0.3698
0.3698
0.3698
0.3698
0.3698
0.3698
0.3698
0.3698
0.3698
0.3698
0.3698
0.3698
0.3747
0.3747
0.3747
0.3747
0.3747
0.3747
0.3747
0.3747
0.3847
0.3898
0.3898
0.395
0.3999
0.405
0.405
0.4099
0.415
0.415
0.405
0.3898
0.3847
0.3798
0.3798
0.3798
0.3798
0.3798
0.3999
0.4597
0.5601
0.66
0.6849
0.5699
0.4397
0.3698
0.3598
0.3598
0.3598
0.3598
0.3547
0.3498
0.3547
0.3547
0.3598
0.3598
0.3647
0.3647
0.3647
0.3647
0.3647
0.3647
0.3647
0.3647
0.3647
0.3647
0.3698
0.3698
0.3747
0.3847
0.3898
0.395
0.3999
0.405
0.405
0.405
0.405
0.405
0.405
0.405
0.405
0.395
0.3898
0.3847
0.3798
0.3747
0.3698
0.3647
0.3598
0.3598
0.3547
0.3498
0.3498
0.3547
0.3598
0.3647
0.3647
0.3647
0.3647
0.3698
0.3698
0.3698
0.3647
0.3647
0.3647
0.3647
0.3647
0.3647
0.3598
0.3598
0.3598
0.3598
0.3647
0.3647
0.3647
0.3598
0.3647
0.3647
0.3647
0.3647
0.3647
0.3647
0.3698
0.3698
0.3747
0.3747
0.3847
0.3898
0.395
0.3999
0.405
0.405
0.4099
0.415
0.415
0.3999
0.3847
0.3747
0.3747
0.3747
0.3747
0.3798
0.3847
0.3999
0.4597
0.5601
0.6702
0.6998
0.5848
0.4548
0.3798
0.3647
0.3598
0.3547
0.3498
0.3447
0.3447
0.3447
0.3498
0.3498
0.3547
0.3598
0.3598
0.3647
0.3647
0.3698
0.3747
0.3847
0.3847
0.3898
0.3898
0.395
0.405
0.4099
0.4199
0.425
0.425
0.4299
0.4299
0.4299
0.435
0.435
0.435
0.435
0.435
0.4299
0.4299
0.425
0.425
0.4199
0.415
0.4099
0.405
0.3999
0.395
0.395
0.395
0.395
0.395
0.395
0.395
0.395
0.395
0.395
0.395
0.395
0.395
0.395
0.395
0.395
0.3898
0.3898
0.3847
0.3847
0.3847
0.3847
0.3898
0.3898
0.395
0.395
0.395
0.395
0.395
0.3999
0.3999
0.3999
0.3999
0.405
0.405
0.405
0.405
0.415
0.425
0.425
0.4299
0.4299
0.435
0.4397
0.4397
0.4446
0.435
0.415
0.405
0.405
0.4099
0.4099
0.405
0.405
0.4099
0.4548
0.5501
0.66
0.7098
0.64
0.4998
0.4099
0.3847
0.3798
0.3747
0.3698
0.3698
0.3698
0.3698
0.3698
0.3698
0.3698
0.3747
0.3747
0.3798
0.3847
0.3898
0.3898
0.395
0.395
0.3999
0.405
0.405
0.4099
0.4199
0.425
0.4299
0.435
0.435
0.4397
0.4397
0.4397
0.4397
0.4397
0.4397
0.4397
0.4397
0.435
0.425
0.415
0.4099
0.3999
0.395
0.3898
0.3847
0.3798
0.3747
0.3747
0.3747
0.3747
0.3747
0.3747
0.3747
0.3798
0.3798
0.3798
0.3798
0.3798
0.3847
0.3847
0.3847
0.3898
0.3898
0.3898
0.3847
0.3847
0.3798
0.3798
0.3798
0.3798
0.3847
0.3847
0.3898
0.3898
0.3898
0.3898
0.3898
0.395
0.395
0.395
0.395
0.395
0.3999
0.4099
0.415
0.4199
0.425
0.4299
0.4299
0.435
0.4397
0.435
0.4199
0.405
0.3999
0.395
0.395
0.3999
0.3999
0.3999
0.425
0.4949
0.5999
0.6849
0.6949
0.5552
0.435
0.3798
0.3698
0.3698
0.3647
0.3598
0.3598
0.3598
0.3598
0.3598
0.3598
0.3647
0.3698
0.3698
0.3747
0.3747
0.3747
0.3798
0.3847
0.3847
0.3847
0.3898
0.395
0.3999
0.405
0.4099
0.415
0.415
0.4199
0.4199
0.425
0.415
0.415
0.415
0.415
0.415
0.4099
0.405
0.395
0.3847
0.3747
0.3698
0.3698
0.3698
0.3647
0.3647
0.3647
0.3698
0.3698
0.3747
0.3747
0.3747
0.3698
0.3647
0.3647
0.3647
0.3647
0.3647
0.3647
0.3647
0.3647
0.3698
0.3647
0.3647
0.3798
0.4397
0.5501
0.66
0.6949
0.5799
0.4446
0.3747
0.3598
0.3598
0.3598
0.3498
0.3447
0.3447
0.3498
0.3498
0.3498
0.3547
0.3598
0.3598
0.3598
0.3598
0.3598
0.3647
0.3647
0.3647
0.3647
0.3698
0.3747
0.3798
0.3847
0.3898
0.395
0.3999
0.405
0.405
0.4099
0.4099
0.4099
0.4099
0.4099
0.405
0.395
0.395
0.3898
0.3898
0.3847
0.3798
0.3747
0.3747
0.3698
0.3698
0.3698
0.3647
0.3647
0.3698
0.3698
0.3747
0.3698
0.3698
0.3698
0.3698
0.3647
0.3598
0.3598
0.3598
0.3547
0.3547
0.3547
0.3547
0.3498
0.3498
0.3547
0.3598
0.3598
0.3598
0.3647
0.3647
0.3647
0.3698
0.3698
0.3698
0.3747
0.3747
0.3798
0.3798
0.3847
0.3847
0.3847
0.3847
0.3847
0.3847
0.3847
0.3898
0.3898
0.3898
0.395
0.395
0.3999
0.3999
0.3999
0.3999
0.3999
0.3999
0.405
0.405
0.4099
0.415
0.4199
0.425
0.4299
0.435
0.435
0.4397
0.425
0.4099
0.3999
0.395
0.3999
0.3999
0.3999
0.405
0.405
0.435
0.51
0.6251
0.7149
0.725
0.5699
0.4497
0.3999
0.3847
0.3747
0.3698
0.3647
0.3647
0.3647
0.3647
0.3647
0.3647
0.3647
0.3647
0.3647
0.3698
0.3747
0.3747
0.3747
0.3798
0.3847
0.3847
0.3847
0.3898
0.3999
0.405
0.4099
0.415
0.415
0.4199
0.425
0.4299
0.435
0.435
0.4397
0.4397
0.4397
0.4397
0.435
0.435
0.4299
0.425
0.415
0.405
0.3999
0.395
0.3898
0.3898
0.3898
0.3898
0.3847
0.3847
0.3847
0.3798
0.3798
0.3847
0.3847
0.3847
0.3847
0.3847
0.3847
0.3847
0.3847
0.3798
0.3798
0.3798
0.3798
0.3798
0.3847
0.3847
0.3847
0.3847
0.3847
0.3847
0.3898
0.3898
0.3898
0.3898
0.395
0.395
0.395
0.3999
0.3999
0.3999
0.405
0.405
0.4099
0.415
0.425
0.425
0.4299
0.435
0.4397
0.4397
0.435
0.415
0.405
0.405
0.405
0.405
0.405
0.405
0.405
0.4397
0.52
0.6351
0.7049
0.6551
0.52
0.4199
0.3847
0.3747
0.3747
0.3698
0.3647
0.3647
0.3647
0.3647
0.3647
0.3647
0.3698
0.3698
0.3747
0.3747
0.3747
0.3798
0.3847
0.3847
0.3847
0.3898
0.3898
0.395
0.3999
0.405
0.4099
0.4199
0.425
0.4299
0.435
0.435
0.435
0.435
0.4299
0.425
0.425
0.425
0.4199
0.415
0.405
0.3999
0.395
0.3898
0.3798
0.3747
0.3698
0.3698
0.3698
0.3747
0.3747
0.3747
0.3747
0.3747
0.3747
0.3747
0.3747
0.3798
0.3847
0.3798
0.3798
0.3798
0.3798
0.3747
0.3747
0.3798
0.3798
0.3798
0.3847
0.3847
0.3847
0.3898
0.3898
0.3898
0.3898
0.3898
0.3898
0.3898
0.395
0.395
0.395
0.395
0.395
0.395
0.405
0.4099
0.4099
0.4099
0.415
0.4199
0.425
0.4299
0.435
0.435
0.425
0.405
0.395
0.3898
0.3898
0.3898
0.3847
0.3847
0.3898
0.425
0.5149
0.6199
0.6803
0.615
0.4849
0.3847
0.3598
0.3498
0.3498
0.3447
0.3447
0.3398
0.3398
0.3447
0.3498
0.3498
0.3547
0.3598
0.3598
0.3647
0.3647
0.3698
0.3698
0.3747
0.3798
0.3847
0.3898
0.395
0.395
0.405
0.405
0.4099
0.415
0.415
0.415
0.415
0.415
0.415
0.4099
0.4099
0.405
0.3999
0.3898
0.3898
0.3847
0.3747
0.3698
0.3598
0.3598
0.3547
0.3547
0.3547
0.3547
0.3547
0.3598
0.3598
0.3647
0.3647
0.3647
0.3647
0.3698
0.3747
0.3747
0.3747
0.3698
0.3698
0.3647
0.3647
0.3647
0.3598
0.3598
0.3598
0.3598
0.3598
0.3598
0.3598
0.3647
0.3647
0.3647
0.3647
0.3698
0.3698
0.3698
0.3747
0.3847
0.3847
0.3847
0.3898
0.395
0.405
0.405
0.4099
0.415
0.415
0.4199
0.4199
0.4199
0.4099
0.3898
0.3747
0.3747
0.3698
0.3698
0.3698
0.3698
0.3747
0.415
0.5049
0.6199
0.6849
0.6251
0.4797
0.3847
0.3498
0.3447
0.3447
0.3398
0.3346
0.3346
0.3346
0.3346
0.3398
0.3398
0.3398
0.3447
0.3498
0.3547
0.3598
0.3598
0.3647
0.3647
0.3698
0.3747
0.3747
0.3847
0.3898
0.395
0.405
0.405
0.4099
0.415
0.4199
0.4199
0.4199
0.425
0.425
0.425
0.4199
0.415
0.415
0.4099
0.405
0.3999
0.395
0.3898
0.3847
0.3798
0.3798
0.3798
0.3747
0.3747
0.3747
0.3747
0.3798
0.3798
0.3847
0.3847
0.3898
0.3898
0.3898
0.3898
0.3898
0.3898
0.3847
0.3847
0.3847
0.3847
0.3847
0.3898
0.3898
0.3898
0.395
0.395
0.395
0.3999
0.405
0.405
0.405
0.405
0.405
0.4099
0.4099
0.4099
0.415
0.4199
0.425
0.4299
0.435
0.4397
0.4397
0.4446
0.4497
0.4497
0.4446
0.4299
0.4199
0.415
0.415
0.415
0.415
0.4099
0.4099
0.425
0.4897
0.5948
0.6949
0.7149
0.5948
0.4648
0.405
0.3898
0.3847
0.3747
0.3747
0.3698
0.3698
0.3698
0.3698
0.3747
0.3747
0.3798
0.3798
0.3798
0.3847
0.3898
0.3898
0.3898
0.395
0.3999
0.405
0.405
0.415
0.425
0.4299
0.435
0.435
0.4397
0.4397
0.4446
0.4497
0.4446
0.4446
0.4497
0.4397
0.4397
0.435
0.4299
0.425
0.415
0.4099
0.405
0.3999
0.395
0.395
0.3898
0.3898
0.3898
0.3898
0.3898
0.3898
0.3898
0.3898
0.3898
0.3898
0.3898
0.3898
0.395
0.395
0.395
0.395
0.395
0.395
0.395
0.395
0.395
0.395
0.395
0.395
0.395
0.3999
0.405
0.405
0.405
0.405
0.405
0.405
0.405
0.405
0.405
0.4099
0.4099
0.4199
0.425
0.4299
0.4299
0.435
0.4397
0.4446
0.4497
0.4548
0.4397
0.425
0.415
0.4099
0.4099
0.4099
0.405
0.405
0.4099
0.4397
0.5249
0.6351
0.7049
0.6651
0.53
0.425
0.3847
0.3847
0.3798
0.3747
0.3698
0.3647
0.3647
0.3647
0.3698
0.3747
0.3747
0.3747
0.3798
0.3847
0.3847
0.3898
0.3898
0.395
0.3999
0.405
0.4099
0.415
0.4199
0.425
0.4299
0.435
0.4397
0.4497
0.4497
0.4497
0.4497
0.4446
0.4446
0.4397
0.4397
0.435
0.4299
0.425
0.4099
0.405
0.395
0.3898
0.3847
0.3798
0.3747
0.3747
0.3698
0.3698
0.3747
0.3747
0.3747
0.3747
0.3747
0.3747
0.3747
0.3747
0.3747
0.3747
0.3747
0.3747
0.3747
0.3747
0.3698
0.3747
0.3747
0.3747
0.3747
0.3798
0.3847
0.3847
0.3898
0.3898
0.3898
0.395
0.395
0.395
0.395
0.395
0.395
0.395
0.3999
0.405
0.4099
0.415
0.415
0.4199
0.425
0.4299
0.435
0.435
0.435
0.415
0.395
0.395
0.3898
0.3898
0.3898
0.3898
0.395
0.405
0.4648
0.5699
0.6751
0.7049
0.5999
0.4597
0.3847
0.3747
0.3698
0.3698
0.3647
0.3598
0.3547
0.3547
0.3547
0.3598
0.3598
0.3647
0.3598
0.3598
0.3598
0.3598
0.3647
0.3647
0.3647
0.3647
0.3647
0.3698
0.3747
0.3847
0.3898
0.395
0.3999
0.405
0.405
0.405
0.405
0.405
0.405
0.3999
0.3999
0.405
0.395
0.3898
0.3798
0.3698
0.3647
0.3598
0.3547
0.3498
0.3498
0.3447
0.3447
0.3398
0.3398
0.3447
0.3447
0.3447
0.3498
0.3498
0.3498
0.3498
0.3498
0.3547
0.3598
0.3547
0.3598
0.3598
0.3598
0.3598
0.3598
0.3598
0.3598
0.3598
0.3647
0.3647
0.3698
0.3698
0.3747
0.3798
0.3847
0.3847
0.3847
0.3847
0.3847
0.3898
0.3898
0.3999
0.4099
0.4099
0.415
0.4199
0.425
0.4299
0.435
0.4397
0.4299
0.4099
0.395
0.3898
0.3898
0.3898
0.3898
0.3898
0.3898
0.4199
0.4949
0.6099
0.7049
0.7149
0.5647
0.4397
0.3898
0.3798
0.3747
0.3698
0.3647
0.3647
0.3647
0.3647
0.3647
0.3647
0.3647
0.3647
0.3698
0.3747
0.3798
0.3798
0.3798
0.3798
0.3847
0.3898
0.3898
0.395
0.405
0.415
0.425
0.4299
0.4299
0.435
0.435
0.435
0.435
0.435
0.435
0.435
0.435
0.435
0.4299
0.425
0.4199
0.4099
0.405
0.395
0.3898
0.3898
0.3847
0.3847
0.3798
0.3798
0.3798
0.3798
0.3798
0.3798
0.3747
0.3798
0.3847
0.3898
0.3898
0.3898
0.3898
0.3898
0.3847
0.3847
0.3847
0.3847
0.3798
0.3798
0.3798
0.3847
0.3847
0.3898
0.3898
0.3898
0.395
0.395
0.395
0.395
0.395
0.395
0.395
0.3999
0.405
0.4099
0.415
0.425
0.425
0.4299
0.4299
0.435
0.4397
0.4446
0.4397
0.425
0.4099
0.405
0.405
0.405
0.405
0.405
0.3999
0.4199
0.4797
0.5799
0.6849
0.7098
0.5948
0.4597
0.395
0.3747
0.3747
0.3747
0.3698
0.3647
0.3647
0.3598
0.3598
0.3647
0.3698
0.3698
0.3698
0.3698
0.3747
0.3747
0.3798
0.3847
0.3847
0.3898
0.395
0.3999
0.405
0.4099
0.415
0.425
0.4299
0.4299
0.4299
0.435
0.435
0.435
0.435
0.435
0.4299
0.4299
0.4299
0.425
0.415
0.4099
0.3999
0.3898
0.3847
0.3798
0.3798
0.3747
0.3747
0.3747
0.3747
0.3747
0.3747
0.3747
0.3747
0.3747
0.3798
0.3798
0.3747
0.3747
0.3798
0.3747
0.3747
0.3747
0.3747
0.3747
0.3747
0.3747
0.3747
0.3747
0.3747
0.3747
0.3798
0.3847
0.3847
0.3898
0.3898
0.3898
0.3898
0.3898
0.395
0.395
0.395
0.3999
0.405
0.4099
0.415
0.4199
0.425
0.4299
0.435
0.435
0.425
0.405
0.3999
0.395
0.395
0.395
0.395
0.395
0.3999
0.4497
0.5449
0.6451
0.6898
0.6048
0.4697
0.3847
0.3647
0.3598
0.3547
0.3498
0.3498
0.3447
0.3398
0.3398
0.3447
0.3447
0.3498
0.3498
0.3547
0.3598
0.3598
0.3598
0.3647
0.3698
0.3698
0.3698
0.3747
0.3798
0.3847
0.395
0.395
0.405
0.4099
0.4099
0.415
0.415
0.4199
0.425
0.425
0.425
0.4199
0.415
0.4099
0.405
0.395
0.3898
0.3847
0.3798
0.3747
0.3747
0.3698
0.3647
0.3647
0.3647
0.3647
0.3647
0.3647
0.3647
0.3647
0.3647
0.3698
0.3698
0.3698
0.3647
0.3647
0.3598
0.3598
0.3647
0.3647
0.3647
0.3647
0.3598
0.3647
0.3647
0.3698
0.3647
0.3647
0.3647
0.3698
0.3698
0.3698
0.3747
0.3747
0.3747
0.3747
0.3747
0.3847
0.395
0.3999
0.405
0.4099
0.4099
0.415
0.415
0.425
0.415
0.405
0.3898
0.3847
0.3798
0.3747
0.3747
0.3698
0.3698
0.395
0.4597
0.5699
0.6651
0.6751
0.5401
0.4099
0.3547
0.3398
0.3346
0.3295
0.3246
0.3195
0.3195
0.3195
0.3195
0.3246
0.3295
0.3295
0.3346
0.3346
0.3398
0.3447
0.3447
0.3447
0.3498
0.3498
0.3598
0.3598
0.3647
0.3698
0.3747
0.3847
0.3898
0.395
0.405
0.405
0.405
0.4099
0.4099
0.415
0.415
0.4099
0.4099
0.405
0.3999
0.395
0.3898
0.3898
0.3847
0.3798
0.3747
0.3698
0.3698
0.3698
0.3647
0.3698
0.3698
0.3747
0.3747
0.3747
0.3798
0.3847
0.3847
0.3847
0.3798
0.3847
0.3847
0.3798
0.3747
0.3747
0.3747
0.3747
0.3747
0.3798
0.3847
0.3847
0.3847
0.3898
0.3898
0.395
0.3999
0.3999
0.395
0.395
0.395
0.3999
0.4099
0.415
0.425
0.4299
0.4299
0.4299
0.435
0.4397
0.4397
0.4397
0.425
0.4099
0.405
0.405
0.405
0.405
0.405
0.405
0.425
0.4897
0.5999
0.6998
0.7098
0.5647
0.4397
0.3898
0.3798
0.3747
0.3747
0.3647
0.3647
0.3598
0.3598
0.3647
0.3647
0.3647
0.3698
0.3747
0.3747
0.3747
0.3847
0.3847
0.3898
0.395
0.395
0.3999
0.405
0.4099
0.4199
0.4299
0.4299
0.435
0.4397
0.4397
0.4397
0.4397
0.4397
0.4397
0.4397
0.4397
0.4397
0.435
0.425
0.415
0.4099
0.405
0.395
0.395
0.3898
0.3898
0.3847
0.3847
0.3847
0.3847
0.3847
0.3847
0.3847
0.3847
0.3847
0.3847
0.3847
0.3847
0.3847
0.3847
0.3898
0.3898
0.3847
0.3847
0.3847
0.3847
0.3847
0.3847
0.3847
0.3847
0.3847
0.3898
0.3898
0.395
0.395
0.395
0.395
0.395
0.3999
0.405
0.405
0.4099
0.415
0.425
0.425
0.425
0.4299
0.4397
0.4446
0.4497
0.4446
0.4299
0.4099
0.405
0.405
0.405
0.405
0.3999
0.3999
0.425
0.4849
0.5899
0.6849
0.6998
0.5747
0.4497
0.3898
0.3747
0.3747
0.3747
0.3698
0.3647
0.3647
0.3647
0.3647
0.3698
0.3747
0.3747
0.3747
0.3798
0.3798
0.3847
0.3847
0.3847
0.3898
0.395
0.3999
0.405
0.405
0.4099
0.4199
0.425
0.4299
0.435
0.4397
0.4397
0.4446
0.4446
0.4446
0.4397
0.4397
0.435
0.4299
0.425
0.415
0.4099
0.405
0.395
0.3898
0.3847
0.3798
0.3747
0.3698
0.3747
0.3747
0.3798
0.3798
0.3798
0.3798
0.3798
0.3747
0.3747
0.3798
0.3847
0.3847
0.3798
0.3747
0.3698
0.3698
0.3647
0.3647
0.3647
0.3647
0.3647
0.3647
0.3647
0.3698
0.3747
0.3747
0.3747
0.3747
0.3747
0.3747
0.3747
0.3747
0.3747
0.3847
0.3898
0.395
0.3999
0.3999
0.405
0.405
0.4099
0.415
0.4199
0.405
0.3898
0.3798
0.3798
0.3798
0.3747
0.3747
0.3747
0.3999
0.4597
0.5601
0.66
0.6803
0.5552
0.4299
0.3698
0.3598
0.3598
0.3598
0.3547
0.3498
0.3447
0.3498
0.3498
0.3498
0.3498
0.3598
0.3598
0.3598
0.3598
0.3647
0.3647
0.3647
0.3698
0.3698
0.3747
0.3798
0.3847
0.3898
0.395
0.3999
0.405
0.4099
0.4099
0.4099
0.405
0.405
0.405
0.405
0.4099
0.405
0.405
0.395
0.3898
0.3847
0.3798
0.3747
0.3698
0.3647
0.3647
0.3598
0.3598
0.3598
0.3598
0.3647
0.3647
0.3647
0.3698
0.3747
0.3747
0.3747
0.3747
0.3747
0.3747
0.3698
0.3747
0.3747
0.3698
0.3698
0.3698
0.3698
0.3698
0.3698
0.3747
0.3798
0.3847
0.3847
0.3847
0.3847
0.3847
0.3847
0.3898
0.3898
0.3898
0.3898
0.3999
0.405
0.4099
0.415
0.415
0.425
0.4299
0.4299
0.435
0.4299
0.4099
0.405
0.3999
0.3999
0.395
0.3999
0.395
0.405
0.4397
0.5249
0.64
0.7098
0.6551
0.5149
0.415
0.3847
0.3747
0.3747
0.3698
0.3647
0.3647
0.3647
0.3698
0.3698
0.3747
0.3747
0.3747
0.3747
0.3798
0.3847
0.395
0.3999
0.405
0.4099
0.415
0.415
0.415
0.425
0.4299
0.435
0.4397
0.4446
0.4497
0.4497
0.4497
0.4497
0.4497
0.4497
0.4497
0.4497
0.4446
0.4397
0.435
0.4299
0.425
0.415
0.415
0.4099
0.405
0.3999
0.3999
0.395
0.395
0.395
0.395
0.395
0.395
0.395
0.395
0.395
0.395
0.3999
0.3999
0.3999
0.3999
0.395
0.395
0.395
0.395
0.3898
0.395
0.395
0.395
0.395
0.395
0.395
0.395
0.3999
0.405
0.405
0.4099
0.4099
0.4099
0.4099
0.415
0.4199
0.425
0.4299
0.435
0.435
0.4397
0.4446
0.4497
0.4548
0.435
0.415
0.4099
0.4099
0.4099
0.4099
0.4099
0.4099
0.4199
0.4748
0.5799
0.6849
0.7098
0.6048
0.4697
0.3999
0.3847
0.3847
0.3798
0.3747
0.3698
0.3698
0.3698
0.3698
0.3747
0.3747
0.3798
0.3798
0.3847
0.3898
0.3898
0.395
0.395
0.405
0.405
0.405
0.4099
0.415
0.425
0.4299
0.435
0.4397
0.4446
0.4497
0.4497
0.4497
0.4548
0.4497
0.4497
0.4497
0.4497
0.4397
0.435
0.4299
0.4199
0.4099
0.3999
0.3898
0.3847
0.3847
0.3798
0.3798
0.3798
0.3747
0.3747
0.3747
0.3747
0.3747
0.3747
0.3747
0.3747
0.3747
0.3798
0.3747
0.3747
0.3747
0.3747
0.3747
0.3747
0.3747
0.3747
0.3747
0.3747
0.3747
0.3747
0.3747
0.3747
0.3747
0.3798
0.3798
0.3747
0.3747
0.3747
0.3747
0.3847
0.395
0.3999
0.405
0.405
0.4099
0.4099
0.4199
0.425
0.425
0.4199
0.405
0.3898
0.3847
0.3847
0.3898
0.3898
0.395
0.395
0.4199
0.4897
0.5948
0.6751
0.6849
0.53
0.415
0.3647
0.3598
0.3598
0.3547
0.3447
0.3398
0.3398
0.3398
0.3346
0.3398
0.3398
0.3447
0.3447
0.3447
0.3447
0.3498
0.3498
0.3547
0.3598
0.3647
0.3698
0.3698
0.3747
0.3798
0.3847
0.3898
0.395
0.3999
0.405
0.405
0.4099
0.4099
0.4099
0.4099
0.4099
0.4099
0.405
0.395
0.3898
0.3847
0.3798
0.3747
0.3698
0.3598
0.3598
0.3598
0.3598
0.3598
0.3598
0.3598
0.3598
0.3647
0.3647
0.3647
0.3647
0.3647
0.3647
0.3698
0.3698
0.3698
0.3698
0.3647
0.3647
0.3647
0.3698
0.3698
0.3647
0.3647
0.3698
0.3698
0.3747
0.3798
0.3847
0.3798
0.3798
0.3798
0.3847
0.3847
0.3847
0.395
0.405
0.4099
0.415
0.415
0.415
0.4199
0.425
0.4299
0.4299
0.415
0.3999
0.395
0.3898
0.3847
0.3847
0.3798
0.3798
0.395
0.4497
0.5601
0.6651
0.6998
0.5899
0.4548
0.3847
0.3647
0.3598
0.3598
0.3498
0.3498
0.3498
0.3498
0.3498
0.3598
0.3598
0.3598
0.3598
0.3647
0.3698
0.3698
0.3698
0.3747
0.3747
0.3798
0.3847
0.3898
0.395
0.405
0.4099
0.415
0.425
0.425
0.4299
0.435
0.435
0.435
0.4299
0.4299
0.4299
0.4299
0.4299
0.4299
0.425
0.4199
0.4099
0.405
0.3999
0.3999
0.395
0.395
0.3898
0.3898
0.3898
0.395
0.395
0.395
0.3999
0.3999
0.3999
0.405
0.4099
0.4099
0.4099
0.4099
0.405
0.405
0.3999
0.3999
0.395
0.395
0.395
0.3999
0.3999
0.3999
0.405
0.405
0.4099
0.4099
0.415
0.415
0.415
0.415
0.415
0.4199
0.425
0.4299
0.435
0.4397
0.4397
0.4397
0.4497
0.4548
0.4548
0.4397
0.425
0.415
0.415
0.415
0.415
0.415
0.415
0.4199
0.4648
0.5552
0.6651
0.7198
0.6451
0.51
0.415
0.3898
0.3847
0.3847
0.3798
0.3747
0.3698
0.3698
0.3698
0.3747
0.3747
0.3847
0.3847
0.3898
0.3898
0.395
0.395
0.395
0.395
0.3999
0.405
0.4099
0.415
0.425
0.4299
0.435
0.435
0.4397
0.4397
0.4397
0.4397
0.4397
0.4397
0.4397
0.4397
0.4397
0.435
0.425
0.4199
0.4099
0.405
0.3999
0.395
0.3898
0.3847
0.3847
0.3847
0.3847
0.3847
0.3847
0.3847
0.3898
0.3898
0.3898
0.3847
0.3847
0.3847
0.3898
0.3898
0.3898
0.3898
0.3898
0.3898
0.3847
0.3847
0.3847
0.3847
0.3847
0.3847
0.3847
0.3847
0.3847
0.3898
0.395
0.395
0.395
0.395
0.3999
0.395
0.3999
0.405
0.4099
0.415
0.4199
0.425
0.425
0.4299
0.435
0.4397
0.435
0.4199
0.405
0.405
0.3999
0.3999
0.3999
0.3999
0.3999
0.4199
0.4897
0.5948
0.6849
0.6998
0.5552
0.435
0.3798
0.3747
0.3747
0.3747
0.3698
0.3647
0.3647
0.3647
0.3698
0.3698
0.3747
0.3747
0.3798
0.3847
0.3898
0.395
0.395
0.3999
0.405
0.405
0.405
0.4099
0.415
0.4199
0.425
0.4299
0.435
0.4299
0.4299
0.4299
0.425
0.425
0.425
0.425
0.425
0.415
0.4099
0.3999
0.3898
0.3847
0.3698
0.3647
0.3647
0.3598
0.3598
0.3598
0.3598
0.3598
0.3598
0.3598
0.3647
0.3698
0.3698
0.3698
0.3698
0.3747
0.3747
0.3747
0.3747
0.3747
0.3747
0.3747
0.3747
0.3698
0.3698
0.3698
0.3747
0.3698
0.3698
0.3747
0.3747
0.3747
0.3747
0.3798
0.3847
0.3847
0.3798
0.3798
0.3798
0.3847
0.3847
0.3898
0.395
0.395
0.395
0.405
0.4099
0.4099
0.4099
0.395
0.3798
0.3698
0.3647
0.3647
0.3647
0.3647
0.3647
0.3698
0.415
0.5049
0.615
0.6702
0.5948
0.4548
0.3647
0.3447
0.3398
0.3398
0.3346
0.3295
0.3295
0.3295
0.3295
0.3295
0.3346
0.3398
0.3447
0.3498
0.3498
0.3547
0.3598
0.3647
0.3647
0.3647
0.3698
0.3698
0.3747
0.3847
0.3898
0.395
0.3999
0.405
0.4099
0.4099
0.4099
0.4099
0.4099
0.4099
0.4099
0.4099
0.405
0.405
0.395
0.3898
0.3847
0.3747
0.3747
0.3698
0.3698
0.3698
0.3647
0.3647
0.3647
0.3647
0.3647
0.3647
0.3647
0.3698
0.3698
0.3698
0.3698
0.3747
0.3698
0.3698
0.3698
0.3747
0.3747
0.3747
0.3747
0.3747
0.3747
0.3747
0.3747
0.3847
0.3847
0.3898
0.3898
0.395
0.395
0.395
0.395
0.395
0.395
0.395
0.405
0.415
0.415
0.425
0.425
0.425
0.4299
0.435
0.435
0.4299
0.415
0.405
0.405
0.405
0.405
0.3999
0.3999
0.405
0.4446
0.5349
0.6551
0.7098
0.6451
0.5049
0.4099
0.3847
0.3747
0.3747
0.3647
0.3647
0.3598
0.3647
0.3647
0.3698
0.3698
0.3698
0.3747
0.3747
0.3747
0.3798
0.3847
0.3847
0.3898
0.3898
0.395
0.3999
0.405
0.4099
0.415
0.425
0.4299
0.435
0.4397
0.4397
0.4397
0.435
0.435
0.435
0.435
0.435
0.4299
0.4299
0.4199
0.415
0.405
0.3999
0.395
0.3898
0.3898
0.3847
0.3847
0.3847
0.3847
0.3847
0.3847
0.3898
0.3898
0.3847
0.3898
0.3898
0.3898
0.3898
0.3898
0.3898
0.3898
0.3898
0.3847
0.3847
0.3847
0.3847
0.3847
0.3847
0.3898
0.3898
0.3898
0.3898
0.3898
0.3898
0.395
0.395
0.3999
0.395
0.395
0.395
0.405
0.4099
0.415
0.4199
0.425
0.4299
0.435
0.4397
0.4397
0.4397
0.425
0.4099
0.405
0.405
0.405
0.3999
0.3999
0.405
0.425
0.4949
0.5999
0.6898
0.6998
0.5501
0.4299
0.3798
0.3698
0.3647
0.3647
0.3598
0.3598
0.3547
0.3547
0.3598
0.3647
0.3647
0.3698
0.3747
0.3747
0.3798
0.3798
0.3847
0.3898
0.3898
0.395
0.3999
0.405
0.4099
0.415
0.415
0.415
0.425
0.4299
0.4299
0.435
0.435
0.435
0.435
0.4299
0.425
0.425
0.4199
0.415
0.4099
0.405
0.395
0.3898
0.3847
0.3798
0.3747
0.3747
0.3747
0.3747
0.3747
0.3747
0.3747
0.3747
0.3798
0.3798
0.3798
0.3847
0.3847
0.3898
0.3898
0.3898
0.3898
0.3847
0.3847
0.3847
0.3847
0.3798
0.3847
0.3847
0.3847
0.3847
0.3847
0.3847
0.3898
0.3898
0.395
0.395
0.395
0.395
0.395
0.395
0.405
0.4099
0.4099
0.415
0.4199
0.425
0.425
0.4299
0.4299
0.415
0.3999
0.3898
0.3898
0.3898
0.3898
0.3898
0.3847
0.3898
0.4446
0.5401
0.64
0.6803
0.5948
0.4597
0.3747
0.3547
0.3547
0.3498
0.3498
0.3447
0.3447
0.3447
0.3447
0.3447
0.3498
0.3498
0.3547
0.3598
0.3647
0.3647
0.3747
0.3747
0.3798
0.3798
0.3847
0.3898
0.395
0.405
0.4099
0.415
0.415
0.4199
0.425
0.425
0.425
0.425
0.4199
0.415
0.415
0.415
0.4099
0.405
0.395
0.3898
0.3847
0.3747
0.3747
0.3698
0.3698
0.3647
0.3647
0.3647
0.3647
0.3698
0.3698
0.3747
0.3747
0.3747
0.3747
0.3747
0.3798
0.3747
0.3747
0.3747
0.3747
0.3698
0.3698
0.3698
0.3698
0.3698
0.3647
0.3647
0.3647
0.3647
0.3698
0.3698
0.3698
0.3698
0.3747
0.3798
0.3798
0.3798
0.3847
0.3898
0.3999
0.405
0.4099
0.4099
0.4099
0.4099
0.415
0.4199
0.415
0.405
0.3898
0.3747
0.3747
0.3747
0.3747
0.3747
0.3698
0.3798
0.425
0.52
0.6351
0.6898
0.6099
0.4648
0.3747
0.3447
0.3398
0.3398
0.3398
0.3295
0.3295
0.3295
0.3346
0.3398
0.3398
0.3447
0.3447
0.3498
0.3498
0.3547
0.3598
0.3598
0.3647
0.3698
0.3698
0.3747
0.3798
0.3847
0.3898
0.395
0.405
0.405
0.4099
0.4099
0.4099
0.4099
0.415
0.415
0.415
0.415
0.415
0.415
0.4099
0.405
0.395
0.3898
0.3898
0.3847
0.3847
0.3798
0.3798
0.3798
0.3747
0.3747
0.3747
0.3798
0.3847
0.3898
0.3898
0.3898
0.3898
0.3898
0.3898
0.3898
0.395
0.3898
0.3898
0.3898
0.3898
0.3898
0.3898
0.3898
0.395
0.395
0.395
0.395
0.395
0.3999
0.405
0.405
0.405
0.4099
0.4099
0.415
0.425
0.4299
0.4299
0.435
0.4397
0.4397
0.4497
0.4497
0.4497
0.435
0.4199
0.415
0.415
0.415
0.4099
0.4099
0.4099
0.4199
0.4748
0.5699
0.6751
0.7049
0.6099
0.4748
0.3999
0.3847
0.3798
0.3747
0.3747
0.3698
0.3647
0.3647
0.3647
0.3698
0.3747
0.3747
0.3798
0.3798
0.3847
0.3847
0.3847
0.3847
0.3898
0.3898
0.395
0.3999
0.405
0.4099
0.415
0.425
0.4299
0.435
0.435
0.4397
0.4397
0.4397
0.4397
0.435
0.435
0.435
0.4299
0.425
0.415
0.4099
0.3999
0.395
0.3898
0.3847
0.3847
0.3847
0.3847
0.3847
0.3847
0.3847
0.3847
0.3847
0.3847
0.3847
0.3847
0.3898
0.3898
0.3898
0.3898
0.3898
0.3898
0.3898
0.3898
0.3898
0.3898
0.3847
0.3847
0.3847
0.3847
0.3898
0.3898
0.3898
0.3847
0.3847
0.3898
0.3898
0.395
0.3898
0.395
0.405
0.4099
0.4099
0.415
0.4199
0.425
0.425
0.4299
0.435
0.435
0.425
0.4099
0.405
0.3999
0.3999
0.3999
0.3999
0.395
0.405
0.4648
0.5647
0.6651
0.6949
0.5948
0.4597
0.3898
0.3698
0.3698
0.3647
0.3647
0.3598
0.3598
0.3598
0.3598
0.3598
0.3647
0.3698
0.3698
0.3698
0.3747
0.3798
0.3847
0.3898
0.3898
0.395
0.395
0.405
0.405
0.4099
0.415
0.425
0.425
0.4299
0.4299
0.435
0.435
0.435
0.4299
0.4299
0.4299
0.425
0.425
0.415
0.4099
0.405
0.395
0.3847
0.3798
0.3747
0.3698
0.3698
0.3698
0.3698
0.3647
0.3647
0.3647
0.3647
0.3698
0.3647
0.3647
0.3647
0.3647
0.3647
0.3698
0.3647
0.3647
0.3647
0.3647
0.3647
0.3647
0.3647
0.3647
0.3647
0.3647
0.3698
0.3698
0.3747
0.3747
0.3747
0.3747
0.3747
0.3747
0.3847
0.3847
0.3898
0.395
0.405
0.405
0.4099
0.4099
0.415
0.425
0.425
0.4299
0.415
0.395
0.3898
0.3898
0.3898
0.3898
0.3898
0.3898
0.395
0.4446
0.5449
0.65
0.6898
0.5948
0.4548
0.3747
0.3547
0.3498
0.3498
0.3447
0.3398
0.3398
0.3398
0.3398
0.3447
0.3447
0.3447
0.3498
0.3547
0.3598
0.3598
0.3647
0.3647
0.3698
0.3747
0.3798
0.3847
0.3847
0.3898
0.3898
0.395
0.3999
0.405
0.405
0.405
0.405
0.3999
0.3999
0.405
0.405
0.405
0.3999
0.395
0.3847
0.3747
0.3698
0.3647
0.3647
0.3647
0.3598
0.3547
0.3547
0.3547
0.3598
0.3547
0.3498
0.3498
0.3498
0.3498
0.3498
0.3498
0.3547
0.3547
0.3498
0.3498
0.3498
0.3547
0.3547
0.3498
0.3498
0.3498
0.3498
0.3498
0.3498
0.3547
0.3598
0.3647
0.3647
0.3647
0.3647
0.3647
0.3647
0.3698
0.3698
0.3747
0.3847
0.3898
0.395
0.395
0.3999
0.405
0.4099
0.415
0.415
0.405
0.3898
0.3847
0.3847
0.3798
0.3798
0.3847
0.3847
0.3999
0.4548
0.5552
0.6651
0.6949
0.5948
0.4548
0.3847
0.3647
0.3598
0.3598
0.3547
0.3498
0.3498
0.3498
0.3547
0.3598
0.3598
0.3647
0.3647
0.3698
0.3698
0.3747
0.3747
0.3798
0.3847
0.3847
0.3898
0.395
0.405
0.4099
0.415
0.415
0.425
0.425
0.4299
0.435
0.435
0.435
0.435
0.435
0.435
0.435
0.4299
0.425
0.4199
0.4099
0.405
0.3999
0.395
0.3898
0.3898
0.3898
0.3847
0.3847
0.3847
0.3847
0.3798
0.3798
0.3798
0.3798
0.3847
0.3847
0.3847
0.3847
0.3847
0.3847
0.3898
0.3898
0.3898
0.3898
0.3898
0.3898
0.3898
0.3898
0.3898
0.3898
0.3898
0.395
0.395
0.395
0.395
0.395
0.395
0.395
0.395
0.405
0.415
0.4199
0.425
0.425
0.435
0.435
0.4397
0.4397
0.4397
0.4299
0.415
0.4099
0.4099
0.4099
0.4099
0.4099
0.4099
0.4299
0.4897
0.5999
0.6949
0.7098
0.5699
0.4397
0.3898
0.3847
0.3798
0.3747
0.3698
0.3647
0.3647
0.3647
0.3647
0.3698
0.3747
0.3747
0.3747
0.3798
0.3847
0.3898
0.3898
0.395
0.395
0.3999
0.405
0.405
0.4099
0.415
0.425
0.4299
0.435
0.4397
0.4397
0.4397
0.4397
0.4397
0.4397
0.435
0.4299
0.4299
0.425
0.415
0.4099
0.405
0.395
0.3898
0.3847
0.3798
0.3747
0.3747
0.3747
0.3747
0.3747
0.3747
0.3847
0.3847
0.3798
0.3798
0.3847
0.3847
0.3847
0.3847
0.3847
0.3847
0.3798
0.3798
0.3798
0.3747
0.3798
0.3847
0.3847
0.3847
0.3847
0.3898
0.3898
0.3898
0.3898
0.3898
0.3898
0.3898
0.395
0.395
0.395
0.3999
0.405
0.4099
0.4099
0.415
0.425
0.425
0.4299
0.435
0.435
0.415
0.3999
0.395
0.395
0.395
0.395
0.395
0.395
0.4199
0.4849
0.5848
0.6751
0.6898
0.5601
0.435
0.3798
0.3647
0.3647
0.3647
0.3598
0.3498
0.3498
0.3498
0.3498
0.3598
0.3598
0.3647
0.3647
0.3647
0.3698
0.3698
0.3747
0.3747
0.3798
0.3798
0.3798
0.3847
0.3898
0.395
0.3999
0.4099
0.415
0.4199
0.425
0.425
0.4299
0.4299
0.435
0.4299
0.4299
0.425
0.415
0.415
0.4099
0.3999
0.395
0.3898
0.3847
0.3847
0.3798
0.3798
0.3747
0.3747
0.3698
0.3698
0.3647
0.3647
0.3698
0.3698
0.3698
0.3698
0.3747
0.3698
0.3698
0.3698
0.3698
0.3698
0.3698
0.3698
0.3698
0.3698
0.3698
0.3747
0.3747
0.3798
0.3798
0.3847
0.3847
0.3898
0.3898
0.3898
0.3898
0.395
0.395
0.3999
0.4099
0.415
0.415
0.415
0.4199
0.425
0.425
0.4299
0.4299
0.415
0.3999
0.3898
0.3847
0.3798
0.3798
0.3798
0.3798
0.3898
0.4446
0.5401
0.6451
0.6898
0.5948
0.4548
0.3747
0.3598
0.3547
0.3547
0.3498
0.3447
0.3447
0.3447
0.3447
0.3447
0.3447
0.3447
0.3498
0.3498
0.3498
0.3498
0.3547
0.3547
0.3547
0.3547
0.3598
0.3647
0.3747
0.3747
0.3847
0.3847
0.395
0.395
0.405
0.405
0.4099
0.4099
0.4099
0.4099
0.4099
0.405
0.405
0.405
0.395
0.3898
0.3847
0.3798
0.3747
0.3747
0.3747
0.3747
0.3747
0.3747
0.3747
0.3747
0.3747
0.3798
0.3847
0.3847
0.3847
0.3898
0.3898
0.3898
0.3898
0.3898
0.3847
0.3847
0.3847
0.3798
0.3798
0.3847
0.3798
0.3847
0.3847
0.3898
0.3898
0.3898
0.395
0.395
0.3999
0.405
0.405
0.405
0.405
0.4099
0.415
0.425
0.425
0.4299
0.435
0.435
0.435
0.4397
0.435
0.425
0.4099
0.405
0.405
0.405
0.405
0.405
0.405
0.4199
0.4849
0.5899
0.6898
0.7098
0.5848
0.4548
0.395
0.3747
0.3747
0.3698
0.3647
0.3598
0.3598
0.3598
0.3598
0.3647
0.3698
0.3747
0.3747
0.3798
0.3847
0.3847
0.3898
0.3898
0.395
0.3999
0.405
0.4099
0.415
0.4199
0.425
0.4299
0.435
0.435
0.4397
0.4397
0.4397
0.4397
0.4397
0.4446
0.4397
0.435
0.4299
0.425
0.4199
0.415
0.405
0.395
0.3898
0.3898
0.3847
0.3798
0.3747
0.3747
0.3747
0.3798
0.3798
0.3847
0.3847
0.3847
0.3847
0.3847
0.3847
0.3847
0.3847
0.3847
0.3847
0.3847
0.3847
0.3847
0.3798
0.3798
0.3798
0.3798
0.3847
0.3847
0.3898
0.3898
0.3898
0.395
0.395
0.395
0.3999
0.3999
0.405
0.4099
0.4099
0.415
0.415
0.415
0.415
0.425
0.4299
0.435
0.4397
0.4299
0.4099
0.3999
0.3999
0.3999
0.3999
0.3999
0.3999
0.4099
0.4597
0.5501
0.6551
0.6998
0.6199
0.4897
0.3999
0.3798
0.3747
0.3698
0.3647
0.3598
0.3598
0.3598
0.3598
0.3647
0.3647
0.3698
0.3698
0.3747
0.3847
0.3847
0.3898
0.3898
0.395
0.3999
0.3999
0.405
0.4099
0.4099
0.415
0.425
0.4299
0.4299
0.4299
0.4299
0.4299
0.4299
0.4299
0.4299
0.4299
0.425
0.425
0.415
0.4099
0.3999
0.3898
0.3847
0.3798
0.3747
0.3747
0.3698
0.3698
0.3698
0.3698
0.3698
0.3698
0.3747
0.3747
0.3747
0.3747
0.3747
0.3747
0.3698
0.3698
0.3698
0.3747
0.3747
0.3698
0.3698
0.3698
0.3747
0.3747
0.3747
0.3747
0.3747
0.3747
0.3798
0.3847
0.3847
0.3798
0.3847
0.3847
0.3847
0.3847
0.3847
0.3847
0.3898
0.395
0.395
0.405
0.4099
0.4099
0.415
0.4199
0.425
0.405
0.3898
0.3898
0.3847
0.3847
0.3847
0.3847
0.3847
0.4099
0.4849
0.5948
0.6803
0.6898
0.5401
0.4199
0.3698
0.3647
0.3647
0.3647
0.3547
0.3498
0.3498
0.3547
0.3598
0.3647
0.3647
0.3698
0.3698
0.3698
0.3647
0.3647
0.3647
0.3647
0.3698
0.3698
0.3747
0.3747
0.3847
0.3898
0.3898
0.395
0.3999
0.405
0.405
0.405
0.4099
0.4099
0.4099
0.4099
0.4099
0.4099
0.405
0.3999
0.3898
0.3847
0.3798
0.3747
0.3698
0.3698
0.3647
0.3598
0.3598
0.3598
0.3647
0.3598
0.3598
0.3598
0.3598
0.3598
0.3647
0.3647
0.3647
0.3647
0.3647
0.3598
0.3547
0.3498
0.3547
0.3598
0.3598
0.3598
0.3598
0.3598
0.3598
0.3647
0.3647
0.3647
0.3698
0.3647
0.3698
0.3647
0.3698
0.3698
0.3698
0.3698
0.3798
0.3898
0.3898
0.3898
0.395
0.3999
0.405
0.405
0.4099
0.395
0.3847
0.3747
0.3747
0.3747
0.3747
0.3747
0.3747
0.3847
0.4397
0.5349
0.65
0.6898
0.5948
0.4548
0.3747
0.3598
0.3547
0.3547
0.3547
0.3498
0.3498
0.3498
0.3498
0.3498
0.3598
0.3598
0.3647
0.3647
0.3647
0.3647
0.3698
0.3747
0.3798
0.3847
0.3898
0.395
0.405
0.405
0.4099
0.415
0.4199
0.425
0.4299
0.4299
0.435
0.435
0.435
0.4299
0.435
0.435
0.4299
0.425
0.4199
0.415
0.4099
0.405
0.395
0.3898
0.3847
0.3847
0.3847
0.3847
0.3847
0.3898
0.3898
0.395
0.395
0.395
0.395
0.395
0.395
0.395
0.395
0.3898
0.3898
0.3898
0.3898
0.3898
0.3847
0.3847
0.3898
0.3898
0.3898
0.395
0.3999
0.405
0.405
0.405
0.405
0.4099
0.4099
0.4099
0.4099
0.4099
0.415
0.425
0.4299
0.435
0.4397
0.4446
0.4497
0.4497
0.4548
0.4497
0.435
0.415
0.415
0.415
0.415
0.415
0.4099
0.4099
0.4299
0.4949
0.6048
0.6998
0.7149
0.5799
0.4548
0.3999
0.3898
0.3847
0.3798
0.3747
0.3698
0.3698
0.3698
0.3747
0.3747
0.3747
0.3798
0.3847
0.3847
0.3898
0.3898
0.395
0.3999
0.405
0.405
0.4099
0.415
0.425
0.4299
0.435
0.435
0.4397
0.4397
0.4497
0.4497
0.4497
0.4497
0.4497
0.4497
0.4497
0.4497
0.4397
0.435
0.425
0.415
0.4099
0.405
0.395
0.3898
0.3898
0.3847
0.3847
0.3847
0.3847
0.3847
0.3898
0.3898
0.3898
0.395
0.395
0.395
0.395
0.395
0.395
0.395
0.3898
0.3898
0.3847
0.3847
0.3798
0.3798
0.3798
0.3847
0.3847
0.3898
0.395
0.395
0.395
0.395
0.395
0.395
0.3999
0.3999
0.3999
0.405
0.405
0.4099
0.415
0.425
0.425
0.4299
0.435
0.435
0.4397
0.4446
0.435
0.415
0.405
0.405
0.405
0.405
0.405
0.405
0.4099
0.4446
0.5349
0.6451
0.6949
0.6299
0.4949
0.3999
0.3798
0.3747
0.3747
0.3698
0.3647
0.3647
0.3647
0.3698
0.3698
0.3698
0.3698
0.3698
0.3747
0.3747
0.3798
0.3847
0.3847
0.3898
0.3898
0.3898
0.3898
0.3999
0.405
0.4099
0.415
0.4199
0.425
0.4299
0.4299
0.4299
0.4299
0.4299
0.425
0.425
0.425
0.425
0.415
0.405
0.395
0.3847
0.3747
0.3698
0.3647
0.3598
0.3598
0.3598
0.3598
0.3598
0.3598
0.3598
0.3647
0.3647
0.3647
0.3647
0.3647
0.3698
0.3698
0.3647
0.3647
0.3698
0.3698
0.3747
0.3698
0.3698
0.3698
0.3698
0.3698
0.3747
0.3798
0.3847
0.3847
0.3847
0.3847
0.3847
0.3898
0.3898
0.3898
0.3898
0.3898
0.395
0.405
0.405
0.4099
0.4099
0.415
0.415
0.425
0.4299
0.4299
0.415
0.3999
0.3898
0.3847
0.3847
0.3847
0.3847
0.3847
0.395
0.4497
0.5552
0.66
0.6849
0.5799
0.4446
0.3747
0.3598
0.3598
0.3498
0.3447
0.3398
0.3398
0.3346
0.3398
0.3447
0.3447
0.3498
0.3547
0.3598
0.3598
0.3598
0.3647
0.3647
0.3647
0.3647
0.3698
0.3747
0.3747
0.3847
0.3898
0.395
0.3999
0.405
0.405
0.3999
0.3999
0.3999
0.395
0.395
0.395
0.395
0.3898
0.3847
0.3798
0.3747
0.3698
0.3647
0.3598
0.3598
0.3598
0.3547
0.3547
0.3547
0.3547
0.3498
0.3498
0.3547
0.3598
0.3598
0.3647
0.3647
0.3698
0.3698
0.3747
0.3747
0.3747
0.3747
0.3698
0.3698
0.3698
0.3698
0.3747
0.3747
0.3747
0.3747
0.3747
0.3798
0.3847
0.3847
0.3898
0.3898
0.395
0.395
0.395
0.395
0.405
0.4099
0.415
0.425
0.425
0.4299
0.4299
0.435
0.4397
0.4397
0.435
0.415
0.405
0.405
0.405
0.3999
0.3999
0.405
0.405
0.4497
0.5449
0.66
0.7149
0.65
0.51
0.4199
0.3898
0.3847
0.3798
0.3747
0.3747
0.3698
0.3698
0.3698
0.3698
0.3747
0.3747
0.3747
0.3798
0.3847
0.3898
0.395
0.395
0.395
0.3999
0.405
0.4099
0.415
0.4199
0.425
0.435
0.435
0.4397
0.4397
0.4446
0.4497
0.4397
0.4397
0.4397
0.4397
0.4397
0.435
0.4299
0.4299
0.4199
0.415
0.4099
0.405
0.395
0.395
0.395
0.395
0.3898
0.3898
0.3898
0.3898
0.3898
0.3847
0.3898
0.3898
0.395
0.395
0.395
0.395
0.395
0.395
0.395
0.3898
0.3898
0.3898
0.3898
0.3898
0.3898
0.3898
0.3898
0.3898
0.395
0.395
0.3999
0.405
0.405
0.405
0.405
0.405
0.405
0.405
0.4099
0.4199
0.425
0.4299
0.4299
0.435
0.4397
0.4397
0.4446
0.4497
0.4299
0.415
0.4099
0.4099
0.4099
0.4099
0.4099
0.405
0.425
0.4849
0.5899
0.6849
0.7049
0.5799
0.4548
0.3898
0.3747
0.3747
0.3747
0.3698
0.3647
0.3647
0.3647
0.3647
0.3698
0.3698
0.3747
0.3747
0.3847
0.3847
0.3847
0.3898
0.395
0.395
0.395
0.3999
0.405
0.4099
0.415
0.425
0.425
0.4299
0.4299
0.4299
0.435
0.435
0.435
0.435
0.435
0.4299
0.4299
0.425
0.4199
0.4099
0.405
0.395
0.3847
0.3798
0.3747
0.3747
0.3747
0.3747
0.3747
0.3747
0.3747
0.3747
0.3747
0.3747
0.3747
0.3747
0.3798
0.3847
0.3847
0.3847
0.3847
0.3798
0.3798
0.3747
0.3747
0.3747
0.3798
0.3798
0.3798
0.3798
0.3847
0.3847
0.3847
0.3847
0.3898
0.3898
0.3898
0.3898
0.3898
0.3898
0.395
0.3999
0.405
0.405
0.4099
0.4099
0.415
0.4199
0.425
0.4299
0.425
0.4099
0.395
0.3898
0.3847
0.3847
0.3847
0.3847
0.3847
0.3999
0.4597
0.5647
0.66
0.6803
0.5647
0.435
0.3698
0.3547
0.3547
0.3547
0.3498
0.3498
0.3447
0.3498
0.3547
0.3598
0.3598
0.3647
0.3698
0.3698
0.3747
0.3747
0.3747
0.3747
0.3747
0.3747
0.3798
0.3847
0.3847
0.3898
0.395
0.3999
0.405
0.405
0.405
0.4099
0.4099
0.405
0.405
0.4099
0.4099
0.405
0.395
0.395
0.3898
0.3798
0.3698
0.3647
0.3647
0.3647
0.3647
0.3598
0.3598
0.3598
0.3598
0.3647
0.3698
0.3698
0.3747
0.3698
0.3698
0.3747
0.3698
0.3698
0.3698
0.3647
0.3647
0.3647
0.3647
0.3598
0.3598
0.3547
0.3498
0.3498
0.3547
0.3598
0.3647
0.3647
0.3698
0.3698
0.3698
0.3698
0.3698
0.3747
0.3747
0.3798
0.3847
0.3898
0.395
0.405
0.405
0.4099
0.4099
0.415
0.415
0.415
0.405
0.3847
0.3747
0.3747
0.3698
0.3698
0.3698
0.3698
0.3747
0.415
0.5049
0.6251
0.6898
0.6299
0.4897
0.395
0.3598
0.3547
0.3498
0.3447
0.3447
0.3447
0.3447
0.3447
0.3447
0.3447
0.3447
0.3447
0.3447
0.3498
0.3547
0.3547
0.3598
0.3647
0.3698
0.3747
0.3798
0.3847
0.3898
0.395
0.3999
0.405
0.4099
0.4099
0.4099
0.4099
0.4099
0.415
0.415
0.415
0.4199
0.415
0.415
0.4099
0.405
0.395
0.3898
0.3847
0.3798
0.3747
0.3698
0.3698
0.3698
0.3698
0.3698
0.3747
0.3747
0.3747
0.3747
0.3747
0.3747
0.3747
0.3798
0.3847
0.3847
0.3847
0.3747
0.3747
0.3747
0.3747
0.3747
0.3747
0.3798
0.3847
0.3898
0.395
0.395
0.3999
0.3999
0.3999
0.3999
0.405
0.405
0.405
0.405
0.405
0.4099
0.4199
0.425
0.4299
0.4299
0.435
0.435
0.4446
0.4497
0.4497
0.435
0.415
0.4099
0.4099
0.4099
0.4099
0.405
0.405
0.4099
0.4648
0.5601
0.6702
0.7098
0.6251
0.4897
0.4099
0.3847
0.3847
0.3798
0.3747
0.3698
0.3698
0.3698
0.3747
0.3798
0.3847
0.3847
0.3847
0.3898
0.395
0.395
0.395
0.395
0.3999
0.405
0.405
0.4099
0.415
0.425
0.4299
0.435
0.435
0.4397
0.4446
0.4497
0.4497
0.4446
0.4397
0.4397
0.4397
0.4397
0.435
0.4299
0.425
0.4199
0.4099
0.405
0.3999
0.395
0.3898
0.3898
0.3847
0.3847
0.3847
0.3847
0.3847
0.3847
0.3898
0.3898
0.3898
0.395
0.395
0.395
0.395
0.395
0.3898
0.3898
0.3898
0.3847
0.3847
0.3847
0.3847
0.3847
0.3898
0.3898
0.3898
0.395
0.395
0.3999
0.3999
0.3999
0.3999
0.3999
0.3999
0.405
0.4099
0.415
0.415
0.4199
0.425
0.4299
0.4299
0.435
0.4397
0.4446
0.435
0.415
0.4099
0.405
0.405
0.405
0.405
0.3999
0.4099
0.4548
0.5501
0.6551
0.6998
0.6299
0.4949
0.405
0.3847
0.3798
0.3798
0.3747
0.3747
0.3698
0.3647
0.3647
0.3698
0.3747
0.3747
0.3798
0.3847
0.3847
0.3898
0.3898
0.3898
0.395
0.3999
0.405
0.405
0.4099
0.415
0.425
0.4299
0.435
0.4397
0.4397
0.4446
0.4446
0.4446
0.4397
0.435
0.435
0.4299
0.4299
0.425
0.415
0.4099
0.395
0.3898
0.3847
0.3798
0.3747
0.3698
0.3698
0.3698
0.3698
0.3698
0.3698
0.3698
0.3647
0.3698
0.3698
0.3747
0.3747
0.3798
0.3798
0.3798
0.3747
0.3747
0.3747
0.3747
0.3747
0.3798
0.3847
0.3798
0.3798
0.3847
0.3847
0.3847
0.3898
0.3898
0.3898
0.3898
0.3898
0.3898
0.3898
0.3898
0.3898
0.395
0.405
0.4099
0.4099
0.415
0.415
0.4199
0.4199
0.425
0.4199
0.405
0.3898
0.3847
0.3847
0.3847
0.3847
0.3847
0.3898
0.3999
0.4597
0.5601
0.6702
0.6998
0.5948
0.4548
0.3747
0.3598
0.3598
0.3598
0.3598
0.3547
0.3498
0.3498
0.3498
0.3498
0.3547
0.3547
0.3598
0.3598
0.3647
0.3647
0.3647
0.3647
0.3647
0.3698
0.3747
0.3798
0.3847
0.3898
0.395
0.395
0.405
0.4099
0.4099
0.4099
0.4099
0.405
0.405
0.405
0.405
0.405
0.3999
0.395
0.3898
0.3798
0.3747
0.3647
0.3647
0.3598
0.3547
0.3547
0.3547
0.3547
0.3547
0.3598
0.3598
0.3598
0.3598
0.3647
0.3647
0.3647
0.3698
0.3698
0.3747
0.3747
0.3698
0.3698
0.3698
0.3698
0.3698
0.3747
0.3747
0.3798
0.3847
0.3847
0.3847
0.3847
0.3847
0.3898
0.3847
0.3847
0.3847
0.3898
0.3898
0.395
0.3999
0.405
0.4099
0.415
0.4199
0.425
0.4299
0.435
0.435
0.4397
0.435
0.415
0.405
0.395
0.395
0.395
0.395
0.395
0.405
0.4299
0.4998
0.6099
0.7049
0.7149
0.5601
0.4397
0.3898
0.3798
0.3747
0.3747
0.3698
0.3647
0.3647
0.3647
0.3647
0.3647
0.3698
0.3698
0.3747
0.3747
0.3798
0.3847
0.3847
0.3898
0.395
0.395
0.405
0.4099
0.4099
0.415
0.4199
0.425
0.4299
0.4299
0.435
0.435
0.435
0.4299
0.425
0.425
0.4299
0.4299
0.425
0.4199
0.415
0.4099
0.405
0.3999
0.395
0.3898
0.3847
0.3798
0.3798
0.3747
0.3747
0.3747
0.3747
0.3798
0.3847
0.3847
0.3847
0.3847
0.3847
0.3847
0.3847
0.3847
0.3847
0.3847
0.3798
0.3798
0.3847
0.3847
0.3847
0.3847
0.3847
0.3847
0.3847
0.3847
0.3847
0.3898
0.3898
0.3898
0.3898
0.395
0.395
0.395
0.3999
0.405
0.4099
0.415
0.415
0.4199
0.425
0.4299
0.4299
0.435
0.4299
0.4099
0.3999
0.395
0.395
0.395
0.395
0.395
0.3999
0.4497
0.5449
0.6551
0.6998
0.6251
0.4897
0.3999
0.3747
0.3698
0.3698
0.3647
0.3598
0.3598
0.3598
0.3598
0.3647
0.3698
0.3698
0.3747
0.3747
0.3747
0.3747
0.3798
0.3847
0.3898
0.3898
0.395
0.405
0.4099
0.415
0.4199
0.425
0.4299
0.435
0.435
0.435
0.435
0.435
0.435
0.4299
0.4299
0.4299
0.425
0.425
0.415
0.405
0.3999
0.395
0.3898
0.3898
0.3847
0.3798
0.3747
0.3747
0.3747
0.3747
0.3798
0.3798
0.3798
0.3798
0.3847
0.3847
0.3847
0.3798
0.3847
0.3847
0.3847
0.3847
0.3898
0.3898
0.3847
0.3847
0.3847
0.3847
0.3847
0.3847
0.3847
0.3898
0.3898
0.395
0.3898
0.3898
0.395
0.395
0.395
0.395
0.395
0.3999
0.4099
0.4099
0.4099
0.415
0.415
0.4199
0.425
0.4299
0.4299
0.415
0.395
0.3898
0.3898
0.3898
0.3898
0.395
0.3898
0.3999
0.4597
0.5647
0.66
0.6849
0.5747
0.4446
0.3747
0.3598
0.3598
0.3598
0.3498
0.3498
0.3498
0.3498
0.3498
0.3498
0.3498
0.3498
0.3498
0.3547
0.3598
0.3598
0.3647
0.3698
0.3698
0.3747
0.3747
0.3798
0.3898
0.395
0.405
0.4099
0.4099
0.415
0.415
0.415
0.415
0.415
0.415
0.4199
0.415
0.4099
0.405
0.395
0.3898
0.3847
0.3798
0.3747
0.3698
0.3647
0.3598
0.3598
0.3598
0.3598
0.3598
0.3598
0.3598
0.3647
0.3647
0.3647
0.3698
0.3698
0.3698
0.3747
0.3747
0.3747
0.3747
0.3698
0.3698
0.3698
0.3698
0.3698
0.3698
0.3698
0.3698
0.3698
0.3698
0.3698
0.3747
0.3747
0.3747
0.3747
0.3747
0.3747
0.3747
0.3847
0.3847
0.395
0.405
0.4099
0.4099
0.4099
0.415
0.415
0.4199
0.4199
0.415
0.395
0.3847
0.3798
0.3847
0.3847
0.3798
0.3747
0.3698
0.395
0.4697
0.5848
0.6803
0.6898
0.5349
0.415
0.3598
0.3447
0.3447
0.3398
0.3295
0.3295
0.3295
0.3295
0.3295
0.3398
0.3398
0.3447
0.3447
0.3447
0.3498
0.3498
0.3547
0.3598
0.3647
0.3647
0.3698
0.3747
0.3747
0.3847
0.3898
0.395
0.405
0.4099
0.4099
0.4099
0.4099
0.4099
0.4099
0.4099
0.415
0.415
0.415
0.4099
0.4099
0.3999
0.3898
0.3898
0.3847
0.3747
0.3747
0.3747
0.3747
0.3747
0.3747
0.3747
0.3747
0.3747
0.3747
0.3747
0.3798
0.3847
0.3847
0.3898
0.3898
0.3898
0.3898
0.3898
0.3847
0.3847
0.3847
0.3847
0.3847
0.3847
0.3847
0.3898
0.395
0.395
0.395
0.3999
0.3999
0.3999
0.405
0.405
0.405
0.405
0.4099
0.415
0.425
0.425
0.425
0.4299
0.4299
0.435
0.4397
0.4397
0.425
0.4099
0.3999
0.3999
0.3999
0.3999
0.3999
0.3999
0.4099
0.4648
0.5601
0.6702
0.7049
0.6099
0.4748
0.3999
0.3847
0.3798
0.3747
0.3747
0.3698
0.3698
0.3698
0.3698
0.3698
0.3747
0.3798
0.3847
0.3898
0.3898
0.3898
0.395
0.395
0.395
0.3999
0.405
0.405
0.4099
0.415
0.425
0.4299
0.4299
0.435
0.435
0.4397
0.4397
0.4397
0.4397
0.4397
0.4397
0.4397
0.435
0.4299
0.4199
0.415
0.405
0.3999
0.395
0.3898
0.3847
0.3847
0.3847
0.3847
0.3847
0.3847
0.3847
0.3847
0.3847
0.3847
0.3847
0.3847
0.3847
0.3847
0.3847
0.3847
0.3847
0.3847
0.3847
0.3847
0.3847
0.3847
0.3847
0.3847
0.3847
0.3898
0.3898
0.395
0.395
0.395
0.3999
0.3999
0.3999
0.3999
0.405
0.405
0.405
0.4099
0.415
0.425
0.425
0.4299
0.435
0.435
0.4397
0.4397
0.4446
0.4299
0.4099
0.405
0.405
0.405
0.405
0.405
0.405
0.425
0.4849
0.5899
0.6849
0.7049
0.5799
0.4548
0.3898
0.3747
0.3747
0.3698
0.3647
0.3647
0.3647
0.3647
0.3647
0.3698
0.3698
0.3747
0.3798
0.3847
0.3898
0.3898
0.3898
0.395
0.395
0.395
0.3999
0.4099
0.415
0.4199
0.425
0.4299
0.4299
0.435
0.435
0.4397
0.4397
0.435
0.435
0.435
0.435
0.435
0.4299
0.425
0.415
0.405
0.395
0.3898
0.3847
0.3798
0.3747
0.3698
0.3698
0.3698
0.3698
0.3698
0.3747
0.3747
0.3798
0.3747
0.3747
0.3747
0.3747
0.3747
0.3747
0.3747
0.3747
0.3698
0.3698
0.3647
0.3647
0.3698
0.3698
0.3698
0.3698
0.3698
0.3698
0.3747
0.3798
0.3798
0.3798
0.3747
0.3747
0.3747
0.3747
0.3798
0.3847
0.395
0.3999
0.405
0.4099
0.4099
0.415
0.4199
0.425
0.4299
0.435
0.415
0.3999
0.395
0.395
0.3898
0.3898
0.3898
0.3898
0.4199
0.4949
0.6099
0.6998
0.7049
0.5449
0.415
0.3647
0.3598
0.3598
0.3598
0.3598
0.3547
0.3547
0.3547
0.3547
0.3547
0.3598
0.3598
0.3647
0.3647
0.3647
0.3647
0.3698
0.3698
0.3747
0.3747
0.3798
0.3847
0.3898
0.395
0.395
0.3999
0.405
0.405
0.405
0.405
0.4099
0.4099
0.4099
0.4099
0.4099
0.405
0.3999
0.395
0.3898
0.3847
0.3747
0.3698
0.3647
0.3598
0.3598
0.3598
0.3598
0.3598
0.3598
0.3598
0.3598
0.3547
0.3547
0.3598
0.3598
0.3647
0.3647
0.3647
0.3598
0.3598
0.3598
0.3598
0.3547
0.3547
0.3598
0.3598
0.3598
0.3598
0.3598
0.3647
0.3698
0.3698
0.3698
0.3698
0.3698
0.3747
0.3747
0.3747
0.3798
0.3798
0.3847
0.3898
0.395
0.405
0.4099
0.415
0.415
0.425
0.4299
0.4299
0.4199
0.405
0.395
0.395
0.395
0.395
0.395
0.395
0.3999
0.4446
0.5401
0.6551
0.7098
0.6351
0.4949
0.3999
0.3747
0.3698
0.3647
0.3647
0.3647
0.3598
0.3598
0.3598
0.3647
0.3647
0.3698
0.3698
0.3698
0.3747
0.3747
0.3798
0.3847
0.3847
0.3898
0.3898
0.395
0.405
0.4099
0.415
0.415
0.425
0.425
0.425
0.4299
0.4299
0.435
0.435
0.435
0.435
0.435
0.4299
0.425
0.425
0.415
0.4099
0.405
0.395
0.395
0.3898
0.3898
0.3898
0.3898
0.3847
0.3847
0.3847
0.3847
0.3847
0.3898
0.3898
0.3898
0.3898
0.3898
0.3898
0.3898
0.3898
0.3898
0.3898
0.3847
0.3847
0.3847
0.3847
0.3847
0.3847
0.3847
0.3898
0.395
0.395
0.395
0.3999
0.3999
0.3999
0.405
0.405
0.405
0.405
0.4099
0.415
0.4199
0.425
0.4299
0.4299
0.435
0.4397
0.4446
0.4397
0.425
0.4099
0.405
0.405
0.405
0.3999
0.3999
0.395
0.4199
0.4897
0.5999
0.6898
0.6998
0.5601
0.4397
0.3847
0.3747
0.3747
0.3698
0.3698
0.3698
0.3698
0.3698
0.3698
0.3698
0.3747
0.3747
0.3798
0.3798
0.3847
0.3847
0.3898
0.3898
0.3898
0.395
0.395
0.405
0.4099
0.415
0.4199
0.425
0.4299
0.4299
0.435
0.435
0.435
0.435
0.435
0.435
0.435
0.4299
0.425
0.415
0.4099
0.3999
0.3898
0.3898
0.3898
0.3847
0.3798
0.3747
0.3747
0.3698
0.3747
0.3747
0.3747
0.3747
0.3798
0.3847
0.3798
0.3798
0.3798
0.3847
0.3847
0.3847
0.3798
0.3798
0.3798
0.3798
0.3798
0.3747
0.3747
0.3747
0.3747
0.3798
0.3847
0.3847
0.3898
0.3898
0.3898
0.3898
0.3898
0.3898
0.3898
0.3898
0.395
0.395
0.405
0.405
0.4099
0.415
0.4199
0.425
0.4299
0.435
0.425
0.4099
0.395
0.395
0.395
0.395
0.395
0.395
0.395
0.425
0.5049
0.615
0.6849
0.64
0.5049
0.3999
0.3598
0.3598
0.3598
0.3547
0.3498
0.3447
0.3447
0.3447
0.3447
0.3447
0.3498
0.3498
0.3498
0.3547
0.3598
0.3647
0.3647
0.3698
0.3698
0.3698
0.3747
0.3798
0.3847
0.395
0.3999
0.405
0.4099
0.415
0.415
0.415
0.415
0.415
0.415
0.4199
0.415
0.415
0.4099
0.405
0.395
0.3847
0.3798
0.3747
0.3747
0.3698
0.3698
0.3647
0.3598
0.3598
0.3598
0.3647
0.3598
0.3598
0.3598
0.3647
0.3647
0.3647
0.3647
0.3647
0.3647
0.3647
0.3698
0.3698
0.3647
0.3647
0.3647
0.3647
0.3698
0.3698
0.3698
0.3698
0.3747
0.3798
0.3847
0.3847
0.3847
0.3847
0.3847
0.3847
0.3847
0.3847
0.3898
0.395
0.405
0.405
0.4099
0.405
0.405
0.4099
0.415
0.415
0.405
0.3898
0.3847
0.3798
0.3798
0.3798
0.3798
0.3798
0.3898
0.4397
0.5349
0.6451
0.6898
0.5999
0.4548
0.3747
0.3498
0.3447
0.3398
0.3346
0.3295
0.3246
0.3246
0.3246
0.3295
0.3295
0.3295
0.3398
0.3398
0.3398
0.3398
0.3398
0.3447
0.3498
0.3547
0.3598
0.3647
0.3698
0.3747
0.3847
0.3847
0.3898
0.395
0.395
0.395
0.395
0.395
0.3999
0.405
0.405
0.405
0.405
0.405
0.395
0.3898
0.3847
0.3747
0.3698
0.3698
0.3698
0.3698
0.3698
0.3698
0.3698
0.3698
0.3698
0.3747
0.3747
0.3747
0.3747
0.3798
0.3798
0.3798
0.3747
0.3747
0.3798
0.3798
0.3847
0.3847
0.3847
0.3847
0.3847
0.3847
0.3847
0.3847
0.3898
0.3898
0.395
0.395
0.395
0.395
0.3999
0.3999
0.3999
0.405
0.405
0.415
0.4199
0.425
0.4299
0.4299
0.435
0.4397
0.4497
0.4497
0.435
0.4199
0.4099
0.405
0.405
0.4099
0.405
0.405
0.4099
0.4446
0.53
0.6451
0.7098
0.65
0.5149
0.415
0.3847
0.3847
0.3798
0.3747
0.3698
0.3647
0.3647
0.3698
0.3698
0.3747
0.3747
0.3747
0.3798
0.3847
0.3847
0.3898
0.395
0.395
0.3999
0.405
0.405
0.4099
0.4099
0.415
0.425
0.4299
0.435
0.4397
0.4446
0.4397
0.4397
0.4397
0.4397
0.4397
0.4397
0.435
0.4299
0.425
0.415
0.405
0.3999
0.395
0.3898
0.3898
0.3898
0.3847
0.3847
0.3798
0.3847
0.3847
0.3847
0.3898
0.3898
0.3898
0.3898
0.3898
0.395
0.395
0.3898
0.3898
0.3898
0.3898
0.3898
0.3898
0.3898
0.3898
0.3898
0.3898
0.395
0.395
0.3999
0.405
0.405
0.405
0.4099
0.4099
0.405
0.405
0.4099
0.4099
0.4099
0.4199
0.425
0.4299
0.435
0.435
0.4397
0.4397
0.4497
0.4497
0.435
0.4199
0.415
0.415
0.415
0.4099
0.4099
0.4099
0.425
0.4849
0.5899
0.6849
0.7098
0.5948
0.4648
0.3999
0.3847
0.3847
0.3798
0.3747
0.3698
0.3647
0.3647
0.3647
0.3698
0.3747
0.3747
0.3798
0.3847
0.3898
0.3898
0.395
0.395
0.3999
0.405
0.4099
0.4099
0.415
0.425
0.4299
0.435
0.435
0.4397
0.4446
0.4497
0.4497
0.4497
0.4497
0.4497
0.4397
0.4397
0.435
0.4299
0.425
0.415
0.4099
0.395
0.3898
0.3898
0.3847
0.3847
0.3847
0.3847
0.3847
0.3798
0.3847
0.3847
0.3847
0.3847
0.3847
0.3847
0.3847
0.3847
0.3847
0.3847
0.3798
0.3798
0.3798
0.3798
0.3798
0.3747
0.3747
0.3747
0.3747
0.3747
0.3747
0.3798
0.3847
