DIA 0,DIA 5,DIA 15,DIA 20,DIA 30
-0.0057,0.002,-0.033,-0.0238,0.0585
-0.0012,0.008,-0.02,0.0196,0.0015
-0.0087,-0.004,-0.028,0.056,0.0465
-0.0024,0.02,0.022,0.0742,-0.0045
-0.0027,0.007,0.009,0.0266,0.0405
-0.0027,0.016,0.047,-0.0224,0.1155
-0.0003,0.005,-0.027,0.0924,0.0105
-0.0045,0.013,0.009,0.0182,0.0735
-0.003,0.015,0.009,0.021,-0.0165
-0.0051,-0.008,0.022,0.0308,-0.1755
-0.0012,0.014,0.018,0.042,-0.024
-0.0045,0.023,0.029,0.0826,0.009
-0.0072,0.018,-0.02,-0.0196,-0.0405
-0.0054,0.001,0.04,0.0476,-0.084
-0.0084,0.007,0.028,0.028,0.006
-0.0063,0.011,0.018,0.042,0.006
-0.0021,-0.005,0.022,0.0546,0.012
-0.0072,0.011,0.041,0.0308,0.027
-0.0039,0.013,-0.025,-0.042,0.0045
-0.0054,0.014,0.016,-0.0252,0.0165
0.0006,0.006,0.049,0.0182,-0.0015
-0.0021,0.012,0.007,-0.049,-0.027
-0.0066,0.013,-0.028,0.0196,-0.036
-0.0024,0.011,0.034,0.0448,0.012
-0.0033,0.033,0.027,-0.014,0.0645
-0.0054,0.01,-0.005,0.0196,0.051
0.0006,0.002,-0.041,0.0182,0.009
-0.0054,0.022,-0.013,0.0336,0.0165
-0.0018,0.003,-0.002,0.0644,0.051
-0.0012,0.013,0.062,0.0462,-0.0405
-0.0024,0.022,-0.024,0.0364,0.03
-0.003,0.015,0.037,0.0574,0.027
0.0012,0.019,-0.018,0.0182,0.051
-0.0045,0.024,0.01,-0.0742,0.0405
0.0027,0.009,0.025,-0.0196,-0.03
-0.0036,0.01,-0.022,-0.0014,0.0345
-0.006,-0.007,-0.006,-0.0658,0.021
-0.0072,0.012,-0.001,-0.0336,0.0345
0.0012,-0.011,0.013,0.0588,0.123
-0.0027,0.01,-0.008,0.0336,0.063
-0.0024,0.009,0.02,0.007,0.0615
-0.003,0.015,0.031,-0.035,0.006
-0.0021,0.012,-0.024,-0.0238,0.075
-0.0003,0.024,0.012,0.0014,-0.0495
-0.0045,0.017,0.06,0.0154,-0.045
-0.0009,0.01,0.06,0.0392,0.012
-0.0051,0.011,0.02,-0.0364,-0.015
0.0015,0.013,-0.004,-0.0042,0.009
-0.0033,0.016,-0.019,-0.0098,0.03
0.0015,0.021,-0.011,0.0476,0.0345
-0.009,0.016,0.013,0.0308,0.018
-0.0018,0.025,0.004,0.014,0.048
-0.0054,0.004,-0.027,0.0882,0.027
-0.003,0.002,0.008,-0.0322,0.054
0.0003,0.01,0.02,0.0098,0.0645
-0.0117,0.006,-0.058,0.0308,0.0345
0.0003,0.004,-0.023,0.0266,-0.0105
0,0.009,0.048,0.0266,-0.0045
-0.0021,0.02,-0.011,0.0154,-0.0045
-0.0057,0.014,-0.003,0.0084,0.0225
-0.0015,0.022,-0.038,0.0224,0.0585
-0.0015,0.016,-0.002,0.0364,0.0375
-0.0003,0.008,-0.05,0.0028,0.0315
-0.003,0.011,-0.03,0.0336,-0.012
-0.0084,0,0.059,-0.0126,-0.0165
-0.0048,0.017,0.01,0.0042,0.0105
-0.0024,0.019,0.022,-0.0378,0.024
-0.0003,0.009,0.026,-0.0364,0.057
-0.0006,0.004,0.029,-0.0154,0.105
-0.0042,0.014,0.007,-0.0252,0.0615
-0.0069,0.006,0,-0.0126,0.0405
-0.0111,0.003,-0.045,-0.0056,0.039
-0.0087,0.016,-0.024,0.0294,-0.0375
-0.0081,0.017,0.016,0.0196,-0.0855
-0.0054,0.014,-0.051,0.0154,-0.1215
-0.0012,0.002,-0.001,0.0826,-0.114
-0.0006,0.021,0.005,-0.0308,-0.108
0.0003,0.021,-0.041,0.0322,-0.042
0.0069,0.013,0.015,-0.0154,0.039
-0.0057,0.025,0.015,0.0042,0.0735
-0.0006,0.014,-0.002,0.0126,0.054
0.0009,0.008,-0.041,0.0126,0.066
-0.0006,0.007,-0.11,0.0028,0.0165
-0.0036,-0.008,-0.001,0.0252,-0.0075
-0.0099,0.016,0,-0.063,0.0015
0.0018,0.018,0.029,0.0168,-0.0045
-0.0066,0.011,-0.018,-0.063,0.012
0.0042,0.012,0.049,0.0084,-0.018
-0.0027,0.009,0.038,0.0224,-0.0315
0.0015,0.013,0.018,-0.0182,0.03
-0.0063,0.008,0.011,-0.0294,0.057
-0.0051,0.027,0.021,0.0238,0.0405
-0.0036,0.019,0.011,0.0098,0.084
-0.0021,0.023,0.038,0.0126,0.024
0.0006,0.017,-0.019,0.0014,0.0075
-0.0009,0.025,0.042,-0.0154,0.0405
0.0015,0.019,-0.008,-0.0168,0.0195
-0.003,0.015,0.038,-0.0084,0.045
-0.0009,0.015,0.007,-0.0308,0.0135
0.0012,0.029,0.023,-0.0084,0.0495
-0.0027,0.038,0.06,-0.0336,0.012
-0.0051,0.011,0.016,0.0014,-0.024
-0.0027,0.025,-0.008,-0.0434,-0.0045
-0.0075,0.007,0.06,0.0294,0.0405
-0.0072,0.013,0.014,0.0826,0.009
-0.0027,0.009,-0.037,0.0364,-0.0645
-0.0006,-0.007,0.016,0.0182,0.0015
0.0003,0.006,-0.003,0.0196,0.027
-0.0099,0.014,0.021,0.0098,-0.018
-0.0057,0.024,0.012,0.0196,0.1365
-0.0024,0.021,-0.003,-0.0196,0.021
0.0027,0.005,0.031,0.0182,0.015
0.0009,0.005,-0.006,-0.0014,0.018
-0.0075,0.014,-0.002,-0.0196,0.027
-0.0039,0.014,-0.004,0.0322,0.0495
0.0009,0.021,-0.045,0.0378,0.033
0.0009,0.01,0.027,0.0182,0.0255
-0.0027,-0.004,0.006,0.0028,0.015
-0.0012,0.018,-0.037,-0.0434,0.006
-0.003,0.021,0.039,0.0098,0.06
-0.0081,0.014,0.002,-0.0308,0.0975
-0.0078,0.021,0.004,0.0364,0.066
0,-0.001,-0.014,-0.0168,0.0135
0.0024,0.019,0.009,0.0644,0.0225
-0.0033,0.02,0.027,0.0252,0.1035
-0.0021,0.003,-0.008,0.063,0.0105
-0.0015,0.024,-0.012,-0.0532,0.015
0.0015,0.024,-0.007,-0.0224,0.087
-0.0012,0.027,0.055,-0.0308,0.093
-0.003,0.025,-0.056,0.014,0.0225
0.0036,0.002,-0.022,0.0378,-0.063
-0.0027,0.01,0,0.0238,-0.018
-0.0087,0.005,-0.062,0.0294,-0.138
-0.0105,0.001,-0.022,0.007,-0.411
-0.0081,0.021,0.064,0.021,-0.279
0.0012,0.009,0.042,0.0112,0.5475
-0.0036,0.001,0.02,0.0462,0.432
-0.0033,0.02,0.051,-0.0252,0.1695
0.0036,0.008,-0.005,-0.0168,-0.012
-0.0021,-0.011,0.024,0.0028,-0.075
-0.0105,0.003,0.007,-0.0028,-0.177
0.0021,0.018,0.006,0.0392,-0.1065
-0.0069,0.007,-0.005,-0.0308,0.0405
-0.0012,0.014,0.027,0.0518,0.0315
-0.0024,0.019,0.02,-0.0028,0.0075
0.0021,-0.004,0.022,0.0448,0.051
-0.0021,0.013,-0.006,-0.0518,0.045
0.0039,0.021,0.022,0.042,0.087
-0.0057,0.007,-0.018,0.0084,0.048
-0.0099,0.001,-0.032,0.0308,0.1035
-0.0024,0.02,0.023,-0.0084,0.033
-0.0066,0.005,-0.005,0.0756,0.045
-0.0066,0.025,-0.002,0.0056,0.009
-0.0012,0.013,-0.007,-0.0462,0.018
-0.009,-0.011,-0.005,0.0168,0.048
-0.0054,0.012,-0.03,0.0014,0.024
-0.0057,0.016,0.02,0.0042,-0.006
-0.0051,0.002,-0.038,-0.0168,0.051
-0.0006,0.01,-0.062,-0.0336,0.033
-0.0021,0.019,-0.02,0.0042,-0.033
0.0003,0.017,-0.005,-0.0112,0.015
-0.0051,0.001,0.004,0.0252,0.003
-0.0015,0.008,0.002,0.0154,-0.0435
0,0.007,0.056,0.028,0.0465
-0.0003,0.019,0.036,0.0322,0.063
-0.0051,0.027,0.029,0.0378,0.0345
-0.0021,0.008,0.038,0.0322,-0.0045
-0.0003,0.005,0,0,-0.078
-0.0036,0.027,0.021,0.0126,-0.015
-0.0033,0.011,0.006,-0.0014,0.012
-0.0063,0.014,0.062,-0.0028,0.054
-0.0021,0.007,0.04,0.0462,-0.0135
-0.0021,0.005,-0.037,0,0.018
-0.0099,0.019,-0.003,0.0238,0.084
-0.0075,0.019,0.007,0.014,0.027
0.0027,0.019,-0.034,0.028,0.0945
-0.0099,0.011,0.06,0.0098,0.0495
-0.0015,0.001,-0.005,0.0504,0.0195
-0.0006,0.02,0.026,-0.0196,0.099
-0.003,0.023,-0.019,0.0322,0.072
-0.003,0.02,0.036,-0.0322,0.1245
-0.0066,0.012,0.006,-0.0252,0.1185
-0.0009,0.002,-0.033,-0.0308,0.0105
0.0033,0.019,0.013,-0.0266,0.09
0.0012,0.031,0.009,0.063,0.09
-0.0015,0.019,0.036,0.0028,0.0405
0.0012,0.002,-0.014,0.007,0.1125
-0.0003,0.009,0,0.0392,0.0825
-0.0096,0.014,0.007,0.0084,-0.0405
-0.0015,0.022,0.014,-0.028,-0.066
-0.009,0.014,-0.01,-0.0014,-0.0135
-0.0015,0.013,0.001,0.0028,-0.0495
-0.0003,0.029,0.039,-0.0084,-0.03
-0.0045,0.027,0.011,0.0056,-0.0015
0.0021,0,0.025,0.0224,0.072
-0.0012,0.012,0.013,0.0462,0.0345
-0.0009,-0.012,0.055,0.0042,0.0405
0,0.021,0.008,0.0238,0.129
-0.0015,0.003,-0.016,0.0028,0.099
0.0027,-0.005,0.043,0.0308,-0.0045
0.0051,0.007,-0.001,0.0056,0.0255
-0.0114,0.009,-0.001,-0.0056,-0.042
-0.003,0.007,-0.027,0.0224,0.039
-0.0063,-0.004,0.046,0.0364,-0.045
-0.0012,0.007,0.067,0.0462,-0.093
-0.0009,0.014,0.002,0.028,0.018
-0.003,0.015,-0.005,0.042,-0.021
-0.0039,0.02,-0.028,-0.0182,-0.0465
-0.0099,0.013,0,0.0196,-0.0195
-0.006,-0.001,0.023,-0.0084,0.0105
-0.0054,-0.005,-0.051,-0.0014,0.0885
-0.0054,-0.003,0.034,0.056,0.009
-0.0018,0.005,0.067,-0.0546,0.0375
-0.0018,0.011,0.041,0.0378,-0.0135
0.0024,0.018,-0.019,-0.0056,0.0225
0.0006,0.028,0.001,-0.0028,-0.054
-0.0018,0.014,-0.002,-0.0322,0.0285
-0.0003,-0.003,0.027,0.0014,0.036
0,0.003,0.025,-0.0028,0.042
-0.0027,0.025,-0.025,-0.0112,0.021
-0.0006,0.023,-0.013,0,0.0045
0.0021,0.026,-0.039,0.0756,-0.0465
-0.0009,0.011,0.029,0.0336,-0.0285
-0.0078,0.017,0.009,-0.0126,0.054
-0.0036,0.004,-0.006,0.0252,0.078
0,0.003,0.022,0.0378,0.018
-0.0006,0.009,-0.015,0.0224,0.036
-0.0054,0.025,-0.025,0.0028,0.0585
-0.0006,0.012,-0.001,0.035,0.0645
-0.0066,0.027,0.01,0.0392,0.054
0.0003,0.008,-0.021,0.0056,0.024
-0.0045,-0.008,0.043,-0.0042,0.006
-0.0018,0.005,0.051,0.007,0.0495
-0.0066,0.013,0.014,0.0756,0.027
-0.0102,0.029,0.002,0.0084,0.0075
-0.0054,0.001,0.038,-0.0336,-0.0075
-0.0006,0.01,0.05,-0.0028,-0.0015
-0.0027,0.019,0.039,-0.0126,0.0435
-0.0003,0.01,0.031,0.0266,-0.039
-0.0021,0.01,-0.038,0.0798,0.015
-0.0024,0.023,0.021,0.0182,0.06
-0.0021,-0.004,-0.017,-0.0098,0.0915
-0.0051,0.014,-0.032,0,0.0195
-0.0081,-0.003,-0.026,-0.0168,-0.015
-0.0072,0.008,0.008,0.0266,0.0405
-0.0045,0.018,0.048,0.0308,0.0465
-0.0099,0.012,0.053,0.0028,0.072
-0.0027,0.004,0.064,0.0378,0.006
0.0018,0.023,0.008,0.042,0.0615
0.0006,0.007,0.008,0.0392,-0.009
-0.006,0.01,0.041,-0.0448,-0.0255
-0.0045,0.009,0.036,0.0378,-0.024
-0.0015,0.01,-0.008,0.0182,-0.012
-0.0003,0.001,0.015,-0.0238,-0.042
-0.0021,0.023,-0.007,0.021,-0.0165
0.0009,0.008,0.002,0.0196,0.042
-0.0051,0.005,0.024,0.049,0.0975
-0.0006,0.011,0.018,0.0406,0.03
-0.0024,0.006,0.03,0.0448,-0.0255
-0.0033,0.004,0.04,0.028,0.0105
-0.0048,0.014,-0.021,0.0028,-0.018
-0.003,0.01,0.025,-0.049,-0.024
-0.0012,0.004,-0.021,0.0182,0.087
-0.0006,-0.017,0.009,0.0098,0.132
-0.0015,0.013,0.001,0.0028,0.1185
-0.0033,0.001,0.007,0.0154,0.0735
-0.0057,0.007,0.028,0.0084,-0.0315
0.0012,0.014,-0.007,0.0154,-0.0315
-0.0051,0.022,0.018,-0.0126,0.0195
0.0015,0.019,0.031,0.0476,0.069
0,0.017,0.032,-0.0602,0.021
-0.0021,0.014,-0.022,-0.063,-0.0075
-0.0045,0.026,0.008,-0.0266,0.021
-0.0003,0.024,0.013,-0.0042,0.0135
-0.0057,0.022,-0.029,-0.042,0.0525
-0.0012,0.012,0,0.0336,0.0105
-0.0012,0.024,-0.011,0.0224,0.0105
0,0.022,-0.081,-0.0504,0.033
-0.0024,0.013,-0.014,-0.028,0.033
0.0039,-0.004,-0.011,-0.0336,0.0705
-0.0015,-0.017,-0.019,0.0042,0.0165
-0.0003,-0.011,0.037,0.0364,0.057
-0.0006,0,0.014,0.0518,0.069
-0.0018,0.011,0.023,0.07,-0.015
-0.0093,-0.004,0.029,0.0686,-0.234
-0.006,0.023,0.013,-0.0294,-0.393
-0.0033,-0.001,-0.015,-0.0294,0.1335
0.0042,0.017,0.018,-0.0112,0.669
-0.0018,0.001,0.032,0.0098,0.219
-0.0051,-0.015,0.012,-0.0378,0.024
-0.0027,0.02,-0.016,0.0476,-0.0375
-0.0003,0.003,-0.005,-0.0126,-0.0825
-0.0003,-0.006,0.038,0.049,-0.0945
-0.0051,0.014,0.024,0.028,-0.117
0.0036,0.014,0.027,0.0294,0.057
-0.006,0.005,0.012,0.0252,0.054
-0.0012,0,-0.034,0.014,0.1275
-0.0006,0.011,0.006,0,0.0465
-0.0009,0.025,0.037,0.0336,-0.015
-0.0003,0,0.028,0.0406,0.0405
-0.0024,0.005,0.04,-0.0014,0.0915
-0.0051,0.026,0.02,-0.021,0.057
-0.0093,0.004,0.03,0.0378,-0.0825
0.0003,-0.008,-0.005,0.014,-0.141
-0.0003,0.01,0.023,0.0532,-0.099
-0.0012,0.011,-0.011,-0.0126,-0.093
-0.0051,0.003,0.057,0.0504,-0.042
-0.0036,0.007,0.035,-0.0238,0.0015
0.0018,0.001,0.017,0.0252,0.012
-0.0006,0.002,0.046,-0.021,0.0375
-0.0054,0.011,0.001,0.0042,0.075
-0.0027,0.026,-0.029,-0.0658,0.0555
-0.0087,0.018,-0.022,0.0392,0.021
-0.0051,0.015,-0.01,0.007,-0.0105
-0.0045,-0.004,-0.025,-0.035,-0.009
-0.0039,0.015,-0.007,0.0322,0.099
0.0006,0.002,-0.002,0.0378,-0.0075
-0.0048,-0.003,-0.001,-0.0602,0.078
-0.0027,-0.007,0.002,0.007,0.018
-0.0039,-0.017,0.021,0.0686,-0.0135
-0.0024,0.003,0.028,0.0658,0.081
-0.0024,0.011,0.029,0.0336,0.0435
-0.0003,0.005,0.009,-0.049,0.033
-0.0021,0.003,0.027,0.0434,0.0435
-0.0015,0.004,0.002,0.0378,0.0315
-0.0057,0.007,0.024,0.0476,0.036
-0.0024,0.009,0.006,0.0014,0.0105
0,0.016,0.025,-0.0182,-0.018
-0.0045,0.013,0.009,0.0098,-0.0165
-0.0018,0.019,0.003,0.0448,-0.0105
-0.0048,0.01,-0.011,-0.0462,-0.027
-0.006,0.012,0.001,-0.042,-0.108
0.0015,0.015,0.018,0.007,0.024
-0.003,0.019,0.002,0.021,0.0255
-0.0024,0.007,0.044,0.014,0.003
-0.0048,0.008,0.07,-0.0084,-0.0105
-0.0015,0.001,0.041,0.0042,0.0405
-0.0048,0.016,-0.001,-0.0266,0.0225
0.003,0.021,0.018,-0.014,-0.0135
0.0036,0.007,0.015,0.0588,0.0285
0.0009,-0.004,0.004,0.0042,0.0615
0.0012,0.005,0.019,0.007,0.069
-0.0036,0.004,0.007,0.0812,0.039
-0.0078,0.003,-0.006,0.0126,0.027
-0.006,0.006,0.032,0.0266,0.0315
-0.0027,0.009,0.03,0.042,-0.0165
0,0.012,-0.011,-0.0168,0.096
-0.0033,0.008,0.04,0.07,-0.036
-0.0006,-0.006,-0.004,0.0308,0.006
-0.0015,0.007,0.018,0.0854,0.0645
0.0009,-0.017,0.015,0.028,0.024
-0.0009,0.013,-0.016,0.0392,0.0405
0.0021,0.002,-0.042,0.0014,0.0375
0.0006,0.015,0.017,0.0056,0.018
0.0015,0.01,0.007,0.0154,-0.0345
-0.0036,0.007,-0.014,-0.0518,0.0165
-0.0018,-0.001,-0.008,-0.0336,0.0765
-0.0006,0.006,-0.014,0.0084,-0.0015
-0.0009,0.02,-0.03,0.035,0.003
0.0027,0.019,0.047,-0.0098,0.054
-0.003,0.01,0.024,0.0112,0.012
-0.0066,0.002,0.016,0.0392,0.027
-0.0021,0.013,-0.015,-0.0266,-0.018
-0.0027,0.007,-0.031,-0.0084,-0.033
-0.006,0.01,0.008,-0.0322,0.0705
-0.0042,0,0.024,-0.0028,0.0285
-0.0021,0.015,0.044,0.0294,0.009
-0.0054,0.014,0.002,-0.0084,0.066
-0.0054,0.023,0.006,-0.035,-0.066
-0.006,0.018,-0.035,0.0406,-0.012
-0.0003,0.013,0.023,-0.0154,0.036
-0.0021,0.001,-0.021,0.0364,-0.0015
-0.0042,0.01,0.012,0.0308,-0.0225
-0.0006,0.022,-0.03,0.0378,0.024
-0.0015,0.012,-0.007,0.0308,-0.0435
0.0033,0.009,-0.001,0.0588,-0.0435
-0.0033,-0.004,0.012,-0.0028,0.0225
-0.0081,0.025,0.026,0.0112,0.0465
0,0.017,0.021,0.0518,0.063
-0.0021,0.019,-0.011,0.0294,0.0855
0,0.025,0.054,-0.0126,0.0345
-0.0036,0.005,0.04,-0.063,-0.012
-0.0057,0.02,-0.003,0.0266,0.072
-0.0066,0.006,-0.011,0.0028,-0.0165
0.0006,0.004,0.017,-0.0392,0
-0.0012,0.002,-0.016,-0.0476,0.0075
-0.0051,0.011,0.038,0.0028,-0.0915
-0.0063,-0.016,-0.004,0.0126,-0.0105
0.0012,0.009,0.022,-0.0014,0.012
-0.0051,0.002,0.013,-0.014,0.0225
-0.0006,0.006,0.031,-0.0224,0.0675
0.0018,-0.008,0.019,0.0182,-0.0015
0.0021,0.007,0.01,0.0154,0.081
-0.0006,0.011,-0.01,-0.0084,0.039
-0.0012,0.007,0.058,-0.0364,0.0645
-0.0042,0.011,0.018,0.0392,0.0345
-0.0039,-0.009,-0.004,0.0154,0.0405
-0.0084,-0.007,-0.031,0.0308,-0.039
-0.0015,-0.005,-0.013,0.0126,-0.0285
-0.0033,0.019,0.028,0.0196,-0.033
-0.0003,0.008,0.003,-0.0028,-0.0135
-0.0033,0.006,0.034,0.007,0.0105
0.0024,0.007,-0.016,-0.0378,0.0225
-0.0033,-0.001,-0.006,0.0126,0.027
-0.0012,0.017,0.017,0.0294,0.0585
-0.006,0.004,-0.002,0.0014,0.0075
-0.0057,0.023,0.003,0.0196,0.006
0.0009,0.001,0.001,0.0588,0.0405
0.0021,0.01,0.032,0.0266,0.0885
-0.003,0.006,-0.031,0.0322,0.1035
-0.0042,0.014,-0.011,0.0112,0.0945
-0.0006,-0.008,0.011,0.063,0.0345
-0.0027,0.007,0.039,0.0602,-0.0945
-0.0039,0.008,0.047,-0.0168,-0.1125
0.0042,0.024,0.027,0.0112,-0.0735
0.0015,0.003,0.005,0.0266,-0.1005
-0.003,0.013,0.062,0.0098,0.006
-0.0015,0.035,-0.01,0.0182,0.039
-0.0024,0.013,-0.022,0.0602,0.0045
-0.0042,0.022,-0.038,0.0126,0.081
-0.0066,0.026,0.037,0.007,0.093
-0.0012,0.001,0.006,-0.0084,0.0525
-0.0069,0.005,0.007,0.0924,0.027
0.0015,0.012,0.005,-0.0182,-0.1275
-0.0015,0.021,0.031,-0.0056,-0.114
0.0012,-0.007,0.007,0.0434,0.048
0,0.006,0.016,0.0322,0.036
0.0021,-0.002,0.035,0.0406,0.0675
0.0039,0.002,-0.012,-0.007,0.1155
0.0021,0.012,0.022,-0.021,0.06
0.0039,0.022,-0.036,-0.0266,-0.0705
0.0021,0.013,-0.012,0.0014,-0.015
-0.0039,0.008,0.045,0.0056,-0.066
-0.0141,0.013,-0.018,-0.0588,-0.3795
-0.0039,0.022,-0.011,-0.0336,-0.4875
-0.0045,0.001,0.044,0.007,0.243
-0.0045,0.009,0.058,-0.0014,0.699
0.0009,0.013,0.004,-0.0224,0.2745
-0.0018,0.006,0.014,0.007,0.072
-0.0033,0.002,-0.003,0.028,-0.0225
0.0033,-0.016,0.016,-0.014,0.012
-0.0057,0.003,0.027,-0.0056,-0.0495
-0.0105,0.023,0.005,-0.0196,-0.018
-0.0012,0.008,0.035,0.077,-0.09
0.0015,0.018,0.003,0.0224,-0.0555
-0.0036,0.018,0.026,0.028,-0.111
-0.0006,0.001,0.006,0.0112,-0.099
0,0.017,-0.007,-0.0014,0.0045
-0.0003,0.006,-0.014,-0.0448,0.009
-0.0093,0.002,0.003,0.0238,0.0075
0.0027,0.012,-0.009,0.0238,0.03
0.0036,0.004,0,0.014,0.024
-0.0012,0.011,-0.068,0.0364,-0.0225
-0.0012,0.005,0.006,0.0308,0.069
-0.0015,0.002,0.043,0,-0.0165
0.0009,0.009,0.02,0.0868,-0.012
0.003,0.019,0.016,0.0084,0.078
0.0045,0.015,0.033,-0.007,0.0435
0.0003,0.025,0.041,0.042,0.0255
0.0006,0.023,0.058,-0.0196,0.06
0.0024,0.009,0.015,0.0126,0.0105
-0.0036,0.024,-0.01,0.0126,0.0675
0.0045,0.009,-0.027,-0.0266,-0.0675
0.0021,0.014,0.015,0.0322,0.0165
0.0006,-0.002,0.021,0.021,-0.024
-0.0015,-0.004,0.026,-0.0182,-0.012
0,0.02,0.024,0.0448,-0.0075
0.0015,0.017,0.053,0.0154,-0.024
-0.0003,0.011,0.017,-0.0952,0.015
0.0018,-0.005,0.008,0.0378,0.0795
-0.0012,0.014,0.016,0.0392,0.039
0.0006,0.007,-0.014,-0.0462,0.018
-0.0021,0.005,0.016,0.0154,0.036
0.0006,0.013,0.021,0.0224,0.0495
-0.0033,0.011,-0.001,0.0448,0.123
-0.0021,0.002,-0.007,0.0798,0.0315
-0.0027,-0.005,0.02,0.0392,-0.0015
0.0051,-0.007,-0.058,-0.0154,-0.003
0.0009,0.015,0.002,0.0266,0.036
-0.0012,0.01,0.003,0.0112,0.0975
-0.0018,0.007,0.024,0.0308,0.0675
-0.0045,0.007,-0.004,-0.0056,0.069
-0.0051,0.01,-0.005,0.0252,0.0705
-0.0015,0.024,-0.01,0.028,0.0585
-0.0015,0.027,-0.012,-0.0168,0.0345
-0.0054,0.015,-0.032,-0.0112,0.0495
0.0012,0.011,0.036,-0.0294,-0.006
-0.003,0.022,-0.02,-0.0014,0.066
-0.0057,0.016,0,-0.0196,0.0135
-0.0021,0.014,0.026,0.0196,-0.0105
0.0027,0.023,-0.023,0.0252,0.015
-0.0009,0.013,0.02,0.0154,-0.0105
-0.006,0.005,0.003,-0.0084,-0.0285
-0.0039,0.006,0.014,0.0182,0.069
-0.0024,0.02,0.015,0.0868,0.0165
0,0.005,-0.004,-0.028,-0.0255
-0.0018,0.019,-0.026,0.0098,0.0225
0.0012,0.01,0.045,-0.0126,0.054
0.0009,0.013,0.009,-0.0364,0.0315
0.0003,0.018,0.024,-0.0364,0.0255
0.0015,0.016,0.01,0.0098,0.033
0.0006,0.018,0.018,0,0.054
-0.0039,0.007,0.045,0.0154,0.0135
-0.0018,0.008,0.006,0.0602,0.0165
-0.0006,-0.009,-0.002,0.007,0.0105
-0.0012,0.011,0.079,0.0308,-0.054
-0.0027,0.002,0.026,0.0084,0.021
0.0003,0.002,0.012,-0.0476,0.063
-0.003,0.008,0.04,-0.0098,-0.03
0.0021,0.01,0.048,0.0252,0
-0.0021,0.023,-0.004,0.0392,0.009
0.0012,0.013,-0.039,0.0336,0.039
0.0042,0.01,0.003,0.0056,0.0045
0,0.017,-0.002,-0.021,0.009
0,-0.012,-0.02,0.0448,0.1035
-0.0033,0.022,-0.008,0.0196,0.09
0,0.01,-0.006,-0.0224,0.06
-0.0069,0,0.014,-0.0476,0.0645
-0.0042,0.002,-0.031,0.0182,0.0495
-0.0093,0.006,0.003,0.0126,-0.0765
-0.0051,0.018,-0.018,0,-0.183
0.0042,-0.001,-0.043,0.0014,-0.075
-0.0015,0.016,-0.012,-0.0224,-0.1005
0.0042,0.008,-0.064,0.0126,-0.069
-0.0015,-0.007,-0.019,0.0084,0.015
0.0027,0.001,0.038,0.014,0.0615
-0.0006,0.009,0.01,0.0154,0.0855
-0.0039,0.01,0.003,0.007,0.069
-0.0006,0.018,-0.015,0.056,0.06
-0.0057,-0.008,-0.038,0.0532,0.0255
-0.0033,0.02,-0.031,-0.0014,0.0675
-0.0057,0.018,0.016,0.0084,0.0705
-0.0018,0.011,0.009,0.0532,0.0645
-0.0006,0.011,0,0.0098,0.075
-0.0006,0.007,-0.013,0.0364,0.0435
-0.0006,0.018,0.059,0.0336,0.0945
0.0012,0.016,-0.005,0.0014,0.018
-0.0069,-0.003,0.077,0.063,0.0045
0.0021,0.009,0.031,0.0252,0.003
0.0003,-0.01,0.051,0.0406,0.0285
-0.0003,0.012,-0.001,0.0532,0.0555
-0.0036,0.012,-0.007,0.0182,0.048
-0.0033,0.002,0.022,-0.0042,0.048
-0.0006,0.03,0.037,0.0084,0.0525
-0.0063,0.009,-0.011,0.0714,-0.045
0.0012,0.002,-0.031,0.028,0.012
0.0021,0.019,-0.005,-0.056,-0.033
0.0045,0.014,0.008,-0.028,-0.051
0.0012,0.012,0.012,-0.0042,0.0735
-0.0009,0.005,-0.009,0.0462,-0.0195
-0.0003,0.007,0.036,0.0098,-0.0135
-0.0009,0.013,0.006,0.007,0.0675
-0.0042,0.017,0.007,0.0238,0.0855
0.0045,0.005,-0.026,0.0714,-0.033
0.0012,0.006,0.022,-0.007,-0.0915
-0.0012,0.007,0.006,0.084,-0.024
0.0006,-0.004,0.014,0.0532,0.063
-0.0018,0.018,0.014,0.0798,0.093
0.0021,-0.008,0.003,0.014,-0.003
-0.0054,0.004,-0.013,0.0182,-0.156
-0.0048,0.007,-0.037,-0.0182,-0.003
-0.0036,0.007,0.019,-0.035,0.066
-0.0084,0.01,0.027,0.0196,0.075
-0.0048,0.023,-0.005,-0.0098,-0.018
-0.0033,0.006,0.026,-0.0448,0.1035
-0.0003,0.016,0.004,0.0056,-0.06
0.006,0.016,-0.046,0.0252,-0.018
-0.0036,0.007,-0.018,-0.0168,-0.099
-0.0048,0.003,0.021,-0.0056,-0.111
-0.0087,0.005,-0.036,-0.0252,-0.336
-0.0114,0.009,-0.003,0.0322,-0.414
-0.0102,0.041,-0.023,-0.0084,0.2925
0.0015,0.019,0.048,0.0168,0.6765
-0.0009,0.001,0.016,0.0196,0.2865
-0.0012,0.027,-0.021,0.0798,0.066
-0.0045,0.02,0.014,0.0336,0.018
-0.0024,0.01,-0.054,-0.0042,0.009
-0.0018,0.018,0.029,-0.0602,0.084
-0.0039,0.013,-0.058,0.0014,0.0075
-0.0042,0.011,0.012,0.0266,-0.111
-0.0027,0,0.02,0.0854,-0.021
-0.0021,-0.001,0.056,0.0448,-0.0435
0.0042,0.016,0.028,0.014,0.0555
-0.0003,0.01,0.051,0.063,0.051
0.0042,0.009,-0.009,-0.0056,0.0585
0.0012,-0.007,-0.011,0.0028,0
-0.0012,0.013,0.011,0.0098,0.03
-0.0039,-0.002,0.029,0.0532,-0.0285
0.0024,0.002,0.003,0.0098,0.06
0.0021,0.008,0.008,-0.0364,0.0375
0,0.015,0.029,0.0392,0.033
0.0006,0.027,0.034,0.077,-0.0645
-0.0003,0.017,0.009,-0.0182,0.045
0.0012,0.006,-0.045,-0.0196,0.0075
-0.0012,0.027,0.025,-0.0392,-0.0465
0.0033,0.013,0.01,-0.0126,0.012
-0.0015,0.017,0.011,0.0126,0.0285
-0.0012,0.013,0.022,0.0014,0.0255
-0.0066,0.022,0.024,0.007,0.0855
-0.0024,0.013,0.001,-0.0224,-0.036
-0.0018,0.007,0.02,-0.0084,0.0195
-0.0054,0.003,-0.004,0.028,0.069
-0.006,0.013,0.032,0.0336,0.0825
-0.0006,0.023,0.027,0.0126,0.0045
0.0003,0.013,-0.017,0.0252,0.0315
-0.0036,0.004,0.015,-0.0056,-0.003
-0.0012,0.023,-0.005,-0.0224,-0.039
-0.0039,0.013,0.012,0.0406,-0.0135
-0.003,0.026,0.011,-0.056,0.024
-0.0024,0.028,-0.036,-0.028,0.0255
-0.0039,0.018,-0.03,0.0308,-0.0225
-0.0021,0.005,-0.019,0.035,0.009
-0.0012,0.02,0,-0.0014,0.0285
0,0.016,-0.006,0.0504,-0.0135
-0.0054,-0.011,-0.022,0.0056,0.0195
-0.0018,0.011,-0.021,-0.0084,0.054
0.0006,0.013,-0.001,-0.0126,0.003
0.0012,-0.006,-0.001,0.0602,-0.0135
0.0003,0.004,0.058,0.0056,0.033
0.0012,0.007,0.043,-0.021,0.0435
0.0024,-0.001,-0.01,-0.0322,0.102
0.0012,0.01,0.026,0.042,0.0765
-0.003,0.02,0.046,-0.0056,0.0375
-0.0045,0.011,0.005,0.0112,0.063
-0.0018,0.009,-0.033,-0.0462,0.024
-0.0069,-0.003,-0.029,0.0014,-0.039
-0.0087,0.017,-0.002,0.0378,-0.1035
-0.0069,0.04,0.018,-0.0168,-0.072
-0.0009,0.017,0.013,0.021,-0.0585
0.0033,0.022,0.039,-0.0042,-0.033
-0.0042,0.02,0.051,-0.0196,0.069
-0.0012,0.006,-0.024,0.0896,0.0015
0.0021,0.003,0.008,0.007,0.0915
-0.0006,0.001,-0.024,-0.0196,0.054
-0.0042,-0.005,0.011,-0.0182,-0.021
0,0.018,0.023,0.035,0.0105
-0.0045,0.02,-0.051,0.0756,0.0705
-0.0051,0.003,-0.027,-0.0476,0.045
0.0006,-0.004,0.013,-0.0532,0.0315
-0.003,0.014,0.005,0.0154,-0.0735
-0.0072,-0.001,-0.007,0.0056,0.018
-0.0078,0.015,0.016,0.0462,-0.0165
-0.0036,0.008,-0.012,0.0084,0.012
0,0.004,0.031,0.0126,0.0255
-0.003,0.01,-0.005,0.0112,0.0195
-0.0015,0.018,0.014,-0.042,0.033
-0.0021,0.011,0.013,-0.0182,-0.0645
-0.0033,0.019,0.067,-0.0518,-0.024
-0.0042,0.017,0.065,0.0112,0.0105
-0.0051,0.011,0.005,-0.021,-0.0105
-0.0057,0.004,0.028,0.0154,0.045
-0.0036,0.018,0.013,0.0406,-0.0105
-0.0069,0.002,-0.006,0.0448,0.048
-0.0036,0.005,-0.034,0.0224,0.048
0.0036,-0.005,0.001,0.0182,0.0225
-0.0027,-0.006,-0.011,0.0294,0.0135
-0.0066,0.008,-0.051,0.0182,-0.0165
-0.0021,-0.001,0.032,0.0098,0.009
0,0.01,0.043,0.0224,0.042
-0.0027,-0.004,0.01,0.0168,0.0435
-0.0042,0.026,0.033,0.0392,0.0135
0,-0.007,0.039,0.0518,0.063
-0.0036,-0.006,-0.005,0.0154,0.063
-0.0024,0.017,-0.004,0.049,0.0585
-0.0063,0.018,0.003,0.0322,0.0975
-0.009,0.017,-0.001,0.0014,0.0585
-0.0006,0.005,-0.053,0.0126,0.105
-0.0027,-0.002,-0.023,0.0294,0.048
-0.0015,0.017,0.035,-0.0196,0.078
-0.003,0.02,-0.006,0.0154,0.087
-0.0009,0.016,-0.001,0.0084,0.0975
-0.0051,0.017,0.02,0.0588,-0.045
-0.0033,0.024,0.003,-0.0294,-0.021
-0.0051,0.014,0.016,0.0588,-0.009
-0.0084,0.024,-0.01,0.0532,0.033
-0.0081,0.015,-0.005,-0.0056,-0.045
-0.0078,0.015,0.018,-0.0266,-0.0135
-0.0066,0.024,0.02,0.0728,0.036
-0.0006,0.019,0.002,0.0378,-0.036
-0.0012,0.017,-0.005,0.0686,-0.054
-0.0012,0.005,0.034,0.0126,0.0375
-0.006,0.002,0.027,0.014,0.0105
-0.0021,0.008,0.007,0.0056,-0.099
-0.0009,0,-0.031,0.0028,-0.006
-0.0027,0.007,0.056,-0.0014,0.1065
-0.0096,0.012,0.027,0.0042,0.045
-0.0042,0.008,0.033,-0.0336,0.087
-0.0072,0.023,0.011,-0.028,0.0105
0.0006,0.015,0.016,0.0224,0.0195
0.0021,0.005,-0.004,-0.0322,0.132
0.0033,0.012,-0.011,0.0112,-0.0015
0.0042,0.005,0.011,-0.0434,-0.048
0.0012,0.015,-0.004,-0.0294,-0.03
-0.0075,0.022,0.011,0.0266,-0.1125
-0.012,0.016,-0.003,0.014,-0.3105
-0.0126,0.011,0.021,0.0476,-0.339
-0.0096,-0.003,0.033,0.035,0.2805
-0.0045,0.007,-0.022,-0.0448,0.621
-0.0048,0.003,-0.005,-0.0238,0.159
0.0021,0.006,-0.008,-0.0056,-0.111
0,0.016,0.03,0.0322,-0.0585
-0.0051,0.007,0.025,0.0056,-0.0135
0.0015,0.021,-0.021,-0.0322,0.027
-0.0012,0.011,-0.017,0.0308,0.009
-0.0003,0.022,0.029,0.028,0.0165
0.0039,0.009,0.01,-0.0532,-0.0165
-0.0057,0.01,0.011,0.07,-0.0105
-0.0009,0.009,0.006,0.0224,-0.0105
-0.0021,0.018,0.013,0.035,0.003
-0.0018,0.011,0.034,0.0336,0.0885
-0.0033,0.008,0.025,0.0154,-0.015
-0.0021,0.011,0.04,-0.0518,-0.0045
-0.0039,0.021,0.016,0.0028,0.051
-0.0063,0.021,0.002,-0.0182,0.102
-0.0042,0.005,0,0.007,-0.027
-0.0006,-0.002,-0.026,0.0714,0.0855
-0.0003,0.01,0.026,0.014,0.1005
-0.0051,0.023,0.015,0.0196,0.063
-0.0027,0.031,0.044,-0.0056,0.066
-0.0063,0.021,0.042,-0.035,0.0105
-0.009,0.006,-0.041,-0.0238,-0.042
-0.0066,0.002,-0.046,-0.0098,-0.0645
-0.0075,0.01,0.013,0.0238,-0.1095
-0.0015,0.008,-0.044,0.0084,-0.1095
-0.0042,0.002,0.042,0,-0.1485
0.0003,0.009,-0.043,0.0616,0.0045
-0.003,0.009,-0.039,0.0056,-0.021
-0.0054,0.014,0.013,-0.0028,0.066
-0.006,0.022,0.024,0.0462,0.042
-0.0012,0.023,0.007,0.0028,0.009
0,0.005,0,0.0224,0.015
0.003,0.016,0.037,-0.0028,-0.0015
-0.0063,0.027,0.037,-0.028,0.0105
-0.0015,0.005,-0.012,-0.007,0.024
-0.0039,0.02,0.008,0.0406,0.051
-0.0027,0.009,0.061,0.0238,0.087
-0.0018,0.032,0.04,-0.0308,0.096
-0.0003,0.027,-0.001,-0.0406,0.042
-0.0024,0.026,0.015,0.0238,-0.021
-0.0027,0.009,0.024,-0.0322,0.0375
0,0.021,0.005,-0.0378,0.03
-0.0003,0.027,-0.025,-0.0196,0.012
-0.0012,0.03,0.002,0.0042,0.0915
-0.0036,0.024,-0.009,0.0154,0.0195
-0.0021,0.023,0.002,0.0154,0.003
-0.0003,0.01,-0.041,0.07,-0.0315
-0.0003,0.033,-0.003,0.0784,0.0045
-0.0012,0.024,-0.003,-0.0154,0.027
0.0009,0.01,0.039,0.028,0.0225
-0.0021,0.019,-0.012,0.0112,0.0255
-0.0054,0.016,-0.008,0.0056,-0.0135
0.0021,0.003,0.022,0.021,-0.0345
-0.0018,0,-0.013,0.0196,-0.084
-0.0033,0.002,0.05,-0.0224,-0.0255
-0.0039,0.006,0.009,0.035,0.033
-0.0024,0.003,0.022,-0.0378,-0.009
-0.0009,-0.004,0.009,0,0.012
-0.0051,-0.002,0.03,0.0378,0.045
0,0.007,0.016,-0.0084,0.0585
-0.0021,0.025,-0.013,-0.0448,0.054
0.0018,0.007,0.016,0.0238,0.0195
-0.0015,0.003,-0.033,-0.0392,0.0375
-0.0009,0.017,-0.016,-0.0434,0.0285
-0.0036,0.004,-0.029,0.0182,0.0285
-0.0024,0.015,-0.006,0.0336,0.021
-0.003,0.008,-0.048,0.0532,-0.0555
0.0042,0.013,-0.025,0.0126,0.0285
-0.0042,0.024,0.004,0.0126,0.0345
-0.0015,0.003,-0.01,0.0406,-0.018
0.0012,0.002,-0.003,-0.028,0.0495
0.0015,0.01,0.01,0.0406,0.0645
-0.0072,0.018,0.046,0.0532,0.102
-0.0009,0.011,-0.019,0.091,0.0555
-0.0027,0.018,0.004,-0.0154,0.039
-0.0009,0.015,0.024,-0.0392,0.039
0.0021,0.011,0.002,-0.0014,0.0765
-0.0021,0.006,-0.003,0.0504,0.084
-0.0069,0.011,0.043,-0.0168,0.0435
-0.0042,0.017,0.034,-0.0658,0.0315
-0.0027,0.011,-0.009,0.0028,-0.0315
-0.0078,0.016,-0.023,0.007,-0.0975
-0.0045,0.017,0.028,-0.0014,-0.006
-0.0051,0.025,0.042,-0.0084,-0.0045
0.0003,0.008,0.054,0.035,-0.0015
-0.0009,0.012,0.003,-0.0462,-0.0225
-0.006,0.005,-0.005,-0.0308,0.0165
-0.0018,0.012,0.042,-0.0028,-0.033
0.0018,0.005,-0.015,-0.0112,0.0885
-0.0024,0.015,-0.02,-0.0196,0.06
0.0006,0.024,0.023,0.028,0.0675
0.0012,0.02,-0.018,0.0168,0.1425
0.0021,0.018,-0.002,0.0448,-0.03
-0.0018,0.012,-0.002,0.0462,-0.153
0.0015,0.011,0.027,-0.0042,-0.0165
0.0009,0.007,-0.018,0.0406,-0.033
-0.0033,0.035,0.009,0.0252,0.0405
-0.0081,0.026,-0.003,0.014,-0.315
-0.0063,0.017,0.016,0.0042,-0.399
-0.0048,0.026,0.044,0.0364,0.4275
0.0009,0.011,-0.001,0.0924,0.5475
0.0036,0.026,0.04,-0.0084,0.171
0.0027,0.025,0.004,0.028,0.072
0.0006,0.005,-0.016,0.0224,0.057
0.0024,0.019,0.044,0.0308,0.0525
-0.0021,0.014,0.044,0.014,0.0825
-0.0042,0.006,0.022,0.0168,0.0435
-0.0066,0.014,-0.014,0.0084,-0.0285
-0.0087,0.015,0.001,-0.0546,-0.0105
-0.0084,0.009,0.03,-0.007,-0.0765
0.003,0.006,-0.032,0,-0.081
-0.0015,0.014,0.035,0.007,-0.078
-0.003,-0.009,0.08,-0.021,0
0,0.011,-0.014,-0.0098,0.084
-0.0096,0.004,0.015,-0.014,0.015
-0.0057,0.016,0.022,0.0042,0.072
-0.0063,0.026,-0.002,0.0364,0.0165
-0.0036,0.013,0.009,-0.0238,0.045
-0.0024,0.005,-0.002,-0.0084,0.1365
-0.0045,0.005,0.037,0.0056,0.108
-0.0036,0.02,-0.03,0.0168,0.111
-0.003,0.011,0.018,0.0378,0.033
-0.0006,0.009,-0.027,-0.0364,0.0345
-0.0042,0.002,-0.023,-0.0014,-0.0315
0.0006,0,0.066,-0.063,-0.1005
-0.0042,0.002,-0.012,0.0266,-0.087
-0.0036,0.023,0.046,0.0238,-0.0375
-0.0048,0.005,0.048,0.0084,0.051
0.0012,0.005,-0.001,-0.0014,0.096
0.0021,-0.014,-0.017,0.0028,0.0585
-0.0027,0.008,-0.001,0.0476,0.0405
-0.006,0.019,-0.027,-0.0056,0.0795
0.0009,0.01,0.025,0.0098,-0.0105
-0.003,0.028,-0.016,0.049,-0.0315
0.0003,0.01,0.036,-0.049,-0.027
0,0.026,0.008,0.0238,0.021
-0.0021,0.02,-0.035,-0.0518,0.0465
-0.0024,0.012,-0.003,0.028,0.033
-0.0009,0.016,-0.047,0.0252,-0.003
-0.0009,0.034,0.038,0.0196,-0.0105
-0.0072,0.019,-0.036,0.035,0.0135
-0.0024,0.027,0.053,0.007,0.042
-0.003,0.013,0.077,0.0112,0.0225
-0.006,0.005,0.011,0.0126,0.0345
-0.0066,0.01,0.065,0.0196,0.054
-0.0006,0.015,0.062,0.0028,0.096
-0.0033,0.017,0.017,0.0364,0.048
-0.0036,0.024,0.044,0.0042,0.045
-0.0033,0.011,0.053,0.0322,0.009
0.0006,0.011,-0.051,0.0672,-0.0195
-0.0072,0.005,-0.062,-0.007,0.0075
-0.0057,0.006,-0.1,-0.0462,0.012
0.0015,0.016,-0.132,0.035,0.072
-0.0033,0.016,-0.058,0.0238,0.087
-0.0051,0.017,-0.071,-0.0126,0.087
-0.0057,0.03,0.015,-0.0028,0.018
-0.0054,0.031,-0.011,0.0224,0.0525
-0.0063,0.023,-0.009,-0.0112,0.009
-0.0036,0.001,-0.015,0.0812,0.015
-0.0021,-0.003,0.012,0.0518,-0.033
0.0009,0.007,0.069,0.0112,-0.0555
-0.0012,0.01,0.017,0.0098,-0.0345
0,0.023,0.031,0.0714,-0.024
-0.0021,0.005,0.022,-0.0154,0.0255
0.0018,0.004,0.1,0.0532,0.033
-0.0006,-0.005,0.086,0.0014,-0.0075
-0.0021,0.018,0.12,-0.028,0.0225
0.0012,0.017,0.141,0.0098,0.09
0.003,0.02,0.089,-0.042,0.0615
-0.0042,0.018,0.115,-0.0056,0.0165
-0.0021,-0.004,0.055,0.0224,0.021
0.0009,0.007,0.022,0.0364,0.0195
0.0021,0.011,-0.058,0.0098,0.0645
-0.0027,0.019,-0.054,-0.0056,-0.0015
-0.0003,0.006,-0.197,0.0238,0.018
-0.006,0.022,-0.234,0.0448,0.051
-0.0051,0.023,-0.116,-0.0322,0.0405
0.0015,0.023,-0.05,0.0322,0.1215
0.0003,0.009,-0.015,0.0378,0.1845
0.0036,0,0.021,0.0294,0.135
0.0051,0.03,0.052,0.0224,0.1875
0.0006,0.019,0.039,0.0448,0.0735
-0.0051,0.002,0.029,0.0168,-0.1155
-0.0117,0.009,-0.004,0.0308,-0.0555
-0.0081,0.01,-0.021,-0.007,-0.2025
-0.003,0.02,-0.048,0.0084,-0.243
-0.0093,0.014,0.009,0.0322,-0.5385
-0.009,0.026,0.009,0.0462,-0.378
-0.0006,0.007,-0.014,0.0224,0.5205
-0.0018,0.003,0.025,0.0238,0.444
-0.0024,0.013,0.03,0.0056,0.183
-0.0021,0.017,0.042,0.0574,0.033
0.0039,0.008,0.078,0.0266,0.0345
-0.0003,0.005,-0.001,0.0014,0.0915
0,0.019,0.069,-0.0308,0.0435
0,-0.004,0.05,0.0042,0.03
-0.0051,0.01,0.022,-0.0182,-0.063
0.0015,0.013,-0.006,0.0014,0.0045
-0.0033,0.016,0.035,0.042,0.009
0.0018,0.01,0.004,0.0784,0.0465
0.0012,0.013,0.035,0.0588,0.06
0,0.014,-0.056,0.035,0.0105
0.0015,0.007,0.023,0.0196,0.06
0.0027,-0.004,0.02,-0.0056,0.024
-0.0024,-0.004,0.006,-0.063,-0.0105
-0.0036,0.002,0.056,0.0154,0.051
-0.0081,0.036,0.028,0.007,0.0525
-0.0063,0.012,0.058,-0.014,0.03
0.0003,0.009,0.061,0.0518,0.0255
-0.0021,0.009,0.085,0.0014,-0.0525
-0.0021,0.011,0.081,0.0224,-0.054
0.0012,0.007,0.047,-0.049,0.027
-0.0012,0.015,0.038,0.0546,0.0945
-0.0054,0.016,-0.013,0.0308,0.0765
-0.0012,0.018,-0.045,0.0406,0.0615
-0.0054,0.012,-0.084,-0.0546,-0.021
-0.0081,0.004,-0.025,0.0504,-0.027
-0.0057,-0.005,-0.011,0.0126,-0.0075
0.0048,0.007,-0.067,0.0392,-0.06
0.0072,0.024,-0.068,-0.0042,0.054
0.0039,0.003,-0.039,-0.007,-0.0435
0.0006,0.006,0.03,0.007,-0.009
0.0054,0.011,-0.044,-0.0224,-0.0165
0.0009,0.021,-0.039,0.0084,0.027
-0.0042,0.011,0.018,-0.014,0.366
-0.0132,0.014,0.007,0.0154,-0.0195
-0.0084,0.005,-0.021,0.028,-0.2475
-0.006,0.004,0.034,0.0336,-0.0765
-0.0036,0.001,-0.016,0.0112,-0.075
-0.0003,0,-0.036,-0.0098,-0.213
0.0063,-0.027,0.044,0.049,0.033
-0.0021,0,0.023,-0.0518,0
-0.0033,0.009,0.023,-0.0042,0.078
-0.0012,-0.007,0.007,-0.0266,0.3735
0.003,-0.004,-0.027,0.028,0.5955
-0.0066,0.017,-0.006,0.0084,0.2715
0.0024,-0.015,0.014,0.028,0.3
-0.0042,0.017,0.015,0.0406,0.099
-0.0027,0.008,0.022,0.0294,-0.138
-0.0042,-0.004,0.063,0.021,-0.4305
-0.0117,0.009,0.031,0.0532,-0.081
-0.0012,0.016,0.056,0.007,0.024
-0.0021,0.007,0.067,-0.0112,-0.0345
-0.0021,0.011,0.044,0.0644,-0.03
-0.0018,0.02,-0.019,0.0042,-0.0255
-0.0099,0.019,-0.002,-0.014,0.1515
-0.0009,0.017,0.017,0.007,0.1125
0.0003,0.006,0.047,-0.021,-0.0105
-0.0039,0.005,0.038,-0.021,0.0225
-0.0006,0.007,0.049,0.0056,0.0765
-0.0096,0.021,-0.002,-0.0182,-0.1275
-0.0024,-0.001,0.024,0.021,-0.165
-0.006,0.013,-0.074,0.014,-0.108
0.0051,0.014,-0.003,-0.049,-0.075
0.0021,0.004,0.018,0.049,-0.141
-0.0075,0.012,0.017,0.0322,0.075
-0.009,0.007,-0.004,-0.0196,0.267
-0.0021,0.003,0.032,0.0042,0.0735
-0.0006,-0.001,0.002,-0.0056,0.0015
0.0015,-0.018,0.004,0.0224,0.0105
-0.0003,-0.005,0.002,0.021,0.069
0.0033,0.007,-0.039,-0.0126,0.1485
-0.0024,0.02,-0.029,-0.0028,0.099
-0.003,0.013,0.036,-0.0014,0.0345
-0.0009,0.032,0.024,0.0224,0.0405
-0.0057,0.013,0.06,0.0476,0.141
-0.0042,0.002,0.022,0.0364,0.048
0.0027,0.022,0.022,0.028,0.0315
0.0066,0.016,0.053,0.021,-0.066
0.0039,0.004,0.045,0.0056,-0.1065
-0.0084,-0.004,0.01,0.0602,0.639
-0.0105,0.007,-0.013,0.0518,0.147
-0.0132,0.003,-0.039,0.0364,-0.6075
-0.0117,0.016,0.041,-0.007,-0.228
-0.0078,0.017,-0.015,0.0308,0.204
-0.0003,-0.002,0.023,0.0098,0.36
-0.0033,-0.004,0.017,-0.0728,0.0105
-0.0021,-0.003,-0.012,-0.0014,-0.0375
-0.0018,-0.005,-0.034,-0.0252,0.1725
-0.0033,0.007,-0.001,-0.0252,0.2025
-0.0021,0.018,0.005,-0.0042,0.1785
-0.0021,0.014,0.011,0.0014,-0.483
0.003,0.016,0.025,0.0364,-1.2
0.0042,0.024,0.002,0.0532,-0.4185
0.003,0.019,0.067,0.028,-0.0195
-0.0075,0.011,0.069,0.0308,-0.099
-0.0117,0.002,0.054,-0.0336,-0.3465
-0.0063,0.01,0.075,0.0322,-0.078
0.0012,0.013,-0.013,-0.0112,0.6915
0.003,0.002,0.004,-0.035,0.1785
-0.0009,0.006,-0.033,0.0378,-0.0465
-0.0033,0.019,-0.088,0.0098,-0.0675
0.0021,0.001,-0.007,0.0196,0.069
-0.0012,0.003,-0.002,0.021,-0.0045
-0.0015,0.004,-0.004,-0.0266,-0.09
-0.0039,0.003,0.002,0.0336,-0.081
-0.0018,-0.003,0.013,0.007,0.4245
-0.0045,-0.01,-0.021,-0.0168,0.3735
-0.0009,-0.022,0.002,-0.0098,0.2775
0.0021,0.012,0.041,0.0112,0.1455
0,0.01,-0.013,0.0504,0.195
-0.003,0.008,-0.014,0.0252,0.1275
-0.0063,0.01,-0.001,0.0126,0.204
-0.0087,0.013,-0.018,0.0322,0.153
-0.0096,0.034,0.007,0.0182,0.0465
-0.0042,0.019,0.005,0.021,-0.0135
-0.0036,0.015,-0.019,0.0252,0.024
-0.0069,0.015,-0.01,-0.0098,-0.084
-0.0117,-0.002,0.002,-0.0672,-0.084
-0.006,0.009,0.067,0.0392,-0.126
0.003,0.016,-0.013,0.028,-0.024
0.0081,0.016,0.016,0.0322,-0.084
0.0078,-0.003,0.024,0.0686,-0.183
-0.0045,0.001,0.025,0.0378,-0.0915
0.0015,0.018,-0.004,0.0014,-0.1485
-0.0042,0.022,-0.002,-0.0616,-0.06
-0.0036,0.008,0.019,-0.0588,0.063
-0.0048,-0.001,0.002,0.0336,0.0285
0,-0.009,0.045,0.028,-0.1245
0.0006,-0.013,-0.008,0.0784,-0.1905
-0.0036,-0.018,0.068,0.014,-0.1005
-0.0063,0,0.085,-0.0266,-0.1035
-0.0012,-0.002,0.085,-0.0434,-0.015
-0.0069,0.014,0.073,0.0518,0.051
0.0024,0.015,0.074,-0.0126,0.2865
0.0006,0.028,0.046,0.0518,0.363
0.0003,0.008,0.028,0.0182,0.105
-0.0036,0.032,-0.005,0.0182,-0.066
-0.0042,0.01,-0.063,-0.0154,0.0975
-0.0102,0.021,-0.079,-0.063,0.1185
-0.0093,0.008,-0.096,0.0224,0.1785
-0.0096,0.003,-0.107,-0.007,0.0765
-0.0066,-0.001,-0.084,0.0098,-0.0015
0.0021,0.013,0.008,0.0112,0.009
0.0015,0.016,0.02,-0.0056,-0.1005
-0.0027,0,0.068,0.014,-0.057
0.0027,-0.014,0.039,0.0126,-0.021
0.0009,0.002,0.072,-0.0084,-0.012
-0.0012,-0.012,0.072,-0.0168,0.045
-0.0003,-0.006,0.032,0.014,0.0375
0.0009,0.005,0.098,0.0182,-0.0135
-0.0027,0.018,0.07,-0.0154,0.039
0.0021,0.02,0.084,0.0182,0.0405
-0.0015,0.017,0.054,0.007,0.039
-0.0069,0.029,-0.018,0.0546,-0.051
0.0009,0.025,-0.149,0.0154,-0.033
0.0012,0.059,-0.225,-0.0182,0.027
0.0006,0.02,-0.179,0.0504,0.054
-0.0075,0.018,-0.072,0.0308,0.0435
-0.0051,0.02,-0.029,-0.021,0.027
-0.0042,-0.002,-0.024,-0.0434,0.027
-0.0018,-0.014,0.042,0.0336,-0.0195
0,-0.005,-0.021,-0.0042,0.057
0.003,-0.005,-0.029,0.0308,0.0225
-0.0027,-0.012,0.051,-0.0252,0.0075
-0.0006,-0.002,0.014,-0.007,0.024
0.0039,0.003,0.023,0.0224,0.045
-0.0003,0.011,0.025,0.0154,0.012
-0.0045,0.009,0.003,0.0728,0.087
-0.0078,-0.003,0.029,0.0602,0.009
-0.0012,0.01,0.024,-0.0462,0.039
-0.0051,0,0.034,-0.014,-0.018
-0.0015,0.009,-0.007,-0.0336,-0.0105
-0.0078,-0.003,0.031,-0.0658,0.0855
-0.0096,0.013,0.033,-0.0672,-0.036
-0.0129,0.005,0.037,0.014,-0.0975
0.0018,0.008,0.08,-0.0098,-0.171
0.0045,0.021,0.068,-0.0378,-0.126
0.0033,0.025,0.036,0.0588,-0.0915
0.0009,-0.001,0,-0.0056,-0.033
0.0021,-0.005,0.045,0.0476,0.075
-0.0039,0.011,0.067,0.077,-0.027
0,0.015,0.046,0.028,0.0135
0,0.007,0.046,0.0084,-0.012
-0.0012,0.018,-0.013,-0.0056,0.012
0.0012,0.012,-0.003,0.0434,0.012
0.0003,0.022,-0.019,-0.0154,0.003
-0.0012,0.023,-0.029,0.0588,-0.009
-0.0039,0.026,0.002,0.0756,0.342
-0.0012,0.017,-0.022,0.0252,-0.096
0.0027,0.012,-0.022,0.0588,0.207
0.0045,-0.025,-0.011,0.0112,0.1185
0.003,-0.041,0.041,0.0126,-0.024
0.003,-0.025,-0.006,0.035,0.006
0.0015,-0.033,0.036,-0.0168,-0.018
0.0039,0.005,0.047,-0.0616,-0.069
0.0012,0.015,0.029,-0.0714,-0.1335
-0.0021,0.025,0,-0.0728,0.063
-0.0111,0.02,-0.005,0.0532,-0.042
-0.0123,0.016,0.014,0.0112,0.009
-0.0126,0.022,0.029,-0.0756,0.4245
-0.0072,0.007,0.026,-0.021,0.687
-0.0021,0.016,-0.036,-0.0602,0.1275
0.0066,0.023,0.025,0.0336,-0.057
0.0042,0.006,-0.003,0.1106,-0.0645
-0.0024,0.013,0.006,0.0504,0.798
-0.0057,0.018,0.018,0.0854,0.213
-0.0114,-0.002,0.054,0.1568,-0.774
-0.0078,-0.012,0.002,0.1386,-0.399
0.0027,0.008,-0.024,0.1302,-0.2325
0.0027,0.011,-0.025,0.0308,-0.1005
0.0021,0.018,-0.061,-0.1218,-0.1095
0.003,0.007,-0.002,-0.2198,-0.045
-0.0018,0.014,0.02,-0.14,-0.135
-0.0006,0.014,-0.006,-0.0056,0.174
0.0015,0.013,0.01,0.035,0.261
0.0021,0.005,0.028,0.0924,0.0705
0.0048,0.011,0.057,0.0518,-0.0405
-0.0048,0.005,0.044,-0.021,-0.0945
-0.0126,0.007,0.046,0.0084,0.0555
-0.0054,-0.001,0.009,0.0042,0.099
-0.0042,-0.002,0.009,0.0196,0.0615
0.006,0.024,0.047,0.0308,-0.024
0.0066,0.005,0.024,0.0798,-0.1155
0.0009,-0.008,0.007,0.0868,-0.2445
-0.0033,-0.014,-0.018,-0.0112,-0.033
-0.0006,0.012,0.001,0.0546,-0.0015
0.0021,0.024,-0.032,-0.0448,0.0735
-0.0015,0.035,-0.011,-0.035,0.1455
-0.0018,0.025,0.016,-0.0084,0.1575
-0.0048,0.012,0.024,0.0196,0.177
-0.0012,0.003,-0.008,0.0224,0.174
-0.0108,0.02,0.013,0.0294,0.18
-0.0084,0.006,0.035,-0.0658,0.096
0.0012,0.003,0.027,-0.0532,0.0375
0.0108,-0.005,-0.003,0.0014,0.1785
0.0057,-0.002,-0.013,-0.007,0.1995
0.0039,0.007,0.026,0.0098,0.192
0.0048,0.01,-0.035,-0.035,-0.2115
-0.0003,0.018,-0.019,0.0364,-0.5355
-0.0081,0.018,-0.044,0.0042,-0.378
-0.0078,0.024,-0.029,-0.0364,-0.03
-0.0066,0.029,0.088,0.0266,0.051
-0.0015,0.015,0.023,0.0658,-0.0645
0.0042,0.016,0.042,0.0952,-0.084
-0.0105,-0.038,0.024,0.07,-0.0645
0.0036,0.018,0.021,0.0798,0.0765
0.006,0.008,-0.013,-0.0028,0.0675
0.0066,-0.002,0.035,-0.0112,-0.0795
0.0027,0.008,0.054,0.0098,-0.0285
-0.0015,0.017,-0.027,0.035,-0.2025
-0.0006,0.025,0.005,0.007,-0.18
-0.0024,0.018,0.048,-0.0924,-0.1665
-0.0075,0.027,0.129,-0.0238,0.099
-0.0027,0.014,0.068,0.0098,0.249
-0.0015,0.021,0.069,0.0574,0.279
0.0039,-0.003,0.095,0.077,0.4455
-0.0006,0.013,-0.096,-0.0028,0.222
-0.0006,0.011,-0.109,-0.0042,0.024
-0.0033,-0.02,-0.323,0.0014,0.213
-0.009,-0.002,-0.246,0,0.4545
-0.0021,0.007,-0.146,-0.042,0.339
-0.006,0.012,0.003,-0.0252,-0.036
0.006,-0.012,0.016,0.021,-1.0245
0.0042,-0.028,0.039,0.021,-1.6425
-0.0003,-0.03,0.063,0.14,-0.714
0.0018,-0.013,0.027,0.1232,-0.252
-0.0039,-0.002,0.03,0.0364,-0.081
-0.0045,0.013,0.045,0.0378,-0.0555
0.0003,0.014,0.026,0.0252,-0.132
-0.0054,0.019,0.029,0.0252,0.642
-0.0012,-0.006,0.053,-0.063,0.897
-0.0003,-0.001,0.004,-0.0588,0.4275
-0.0042,0.013,-0.055,-0.0952,0.3735
-0.0033,-0.006,0.042,0.0224,0.2235
-0.0063,0.001,0.06,0.0532,0.3765
0.0006,0.047,0.059,-0.014,0.1785
-0.0096,0.083,0.055,-0.0028,-0.1125
-0.0072,0.1,0.076,0.0966,0.102
-0.0021,0.046,0.045,-0.0028,0.1125
0.0033,0.007,0.067,0.0238,0.3795
-0.0015,0.014,0.065,0.028,0.153
-0.009,0.021,0.076,0.077,0.057
-0.0009,-0.004,0.057,0.0168,0.042
0.0009,0.003,0.092,-0.0294,-0.0825
-0.0021,0.003,0,-0.0154,-0.057
0.0006,0.014,-0.022,0.0154,-0.21
0.0114,0.025,-0.055,0.0238,-0.003
0.0036,0.007,-0.074,0.0798,-0.0165
0.0006,0.024,-0.092,0.1008,-0.021
-0.0045,0.021,-0.11,0.1344,-0.111
-0.0054,0.008,-0.019,-0.0154,-0.027
-0.0153,-0.007,0,0.0168,0.102
-0.0072,0.002,-0.006,-0.0518,0.4335
-0.0048,-0.009,0.02,-0.0896,0.1275
-0.0075,0.002,0.065,-0.14,-0.1695
-0.0018,0.001,0.068,-0.0084,-0.18
0.0009,0.016,0.063,0.0098,-0.4935
-0.0051,-0.009,0.045,-0.0686,-0.783
-0.0015,0.014,-0.085,0.021,-0.246
0.0021,0.002,-0.029,0.0014,0.5625
0.0027,0.007,-0.018,0.0042,0.1785
0.0033,-0.044,0.037,0.0126,-0.012
-0.0003,-0.021,0.01,-0.0084,0.1605
-0.0021,-0.015,-0.058,-0.0028,0.27
0.0003,0,0.007,0.0028,0.0735
-0.0021,-0.009,0.005,0.0084,0.21
-0.0012,-0.009,0.024,0.0756,0.141
-0.0066,0.02,0.011,0.0952,0.1515
-0.0021,0.059,-0.003,0.0686,0.12
0.0003,0.051,0.017,0.0546,0.0585
0.0003,0.022,-0.052,-0.0224,-0.0255
-0.0006,0.015,-0.006,-0.0154,-0.189
-0.0027,0.015,0.054,0.0532,-0.189
-0.0033,0.012,0.034,0.028,-0.057
-0.0009,0.038,0.044,0.0224,0.759
0.0048,0.018,0.014,0.0182,-0.0615
-0.0021,0.018,0.014,-0.0056,-0.6825
0.0057,-0.023,0.013,-0.0574,0.1395
0.0075,0,0.014,0.0028,0.096
0.0015,0.001,0.034,0.091,0.33
-0.0015,0.013,-0.018,0.0378,0.099
-0.0024,-0.005,0.006,0.007,-0.0675
0.0024,-0.01,0.057,0.0294,-0.306
-0.0204,0.012,0.054,0.077,-0.339
-0.0057,0.044,-0.031,0.035,-0.324
-0.006,0.047,0.012,0.0028,-0.0825
-0.0027,0.056,0.032,0.0126,0.2145
-0.0063,0.029,0.04,-0.0672,0.297
-0.0006,0.025,-0.011,-0.0308,0.129
-0.0009,0.018,-0.006,-0.014,0.093
0.0048,0.042,0.005,-0.0546,0.0855
0.0018,0.03,0.01,-0.0042,0.159
-0.0039,-0.012,-0.013,0.049,-0.009
-0.0054,0.008,-0.034,0.0434,0.0645
-0.0024,-0.019,0.051,0.063,-0.0975
-0.0003,-0.051,-0.027,0.1064,0.033
0.0054,-0.008,0.015,0.0238,-0.027
0.0141,0.003,-0.022,-0.0434,0.0345
0.0123,0.034,0.035,0.0112,-0.1785
0.0135,0.06,0.024,-0.007,-0.318
0.0069,0.042,0.023,-0.1092,-0.0465
-0.012,0.01,0.013,-0.1316,0.0315
-0.0093,0.01,-0.035,0.0336,0.0435
-0.012,0.003,0.021,0.035,0.39
-0.0159,0.011,-0.027,0.0658,1.056
-0.0075,0.024,0.048,0.1106,0.4965
-0.0108,0.015,-0.017,0.0602,-0.102
-0.0039,0.019,0.021,-0.049,-0.2475
0.0123,0.016,-0.027,0.0364,-0.447
0.0126,0,0.026,0.042,-0.2685
0.0051,-0.018,0.005,-0.0196,-0.1425
-0.0033,-0.025,-0.014,-0.0084,-0.0795
-0.0078,-0.044,-0.01,-0.0252,-0.0495
-0.018,-0.016,0.02,-0.0476,-0.0345
-0.0087,0.009,0.001,-0.0014,0.0675
-0.0075,0.027,0.052,0,0.042
-0.009,0.024,0.03,0.063,0.0045
-0.0039,0.014,0.055,0.0868,-0.057
-0.0012,-0.025,0.036,0.0014,-0.096
0.0048,-0.026,0.011,-0.0434,-0.2385
0.0084,0.009,0.005,-0.0924,-0.0405
0.0072,0.035,-0.038,0.0728,0.0315
0.0015,0.01,-0.075,0.0308,-0.0015
-0.0069,0.052,-0.078,0.0686,-0.0555
-0.0114,0.053,-0.096,0.035,0.5025
0.0039,0.036,-0.109,0.0084,1.11
0.0051,0.005,-0.091,0.0392,0.4485
0.0051,-0.033,-0.046,0.0126,-1.44
0.0021,0.012,-0.005,0.0406,-1.3875
0.0057,0.014,0.025,0.0616,0.0045
-0.0036,0.008,0.04,0.0742,0.48
0.0021,0.028,-0.016,0.1106,0.927
0.0102,0.032,0.005,0.1246,0.819
0.0099,0.011,0.033,0.042,0.3165
-0.0033,0.009,0.024,0.0392,-0.063
-0.0162,-0.002,0.043,-0.0056,-0.3105
-0.0222,-0.011,0.097,-0.1442,-0.534
-0.0123,-0.027,0.018,-0.2282,-0.936
-0.0072,0.012,0.051,-0.0364,-0.8835
-0.0195,0.051,0.062,-0.035,-0.534
-0.0138,0.029,0.043,-0.0196,-0.1245
0.0051,0.023,0.079,-0.0448,-0.144
0.0054,0.011,0.032,-0.0014,0.324
-0.006,0.017,-0.011,0.0448,0.0825
-0.006,0.032,-0.012,-0.0056,0.099
0.0009,0.014,0.018,0.0616,-0.1845
-0.0084,0.023,0.027,0.1092,0.06
-0.0114,0.025,0.035,0.0742,1.3665
-0.0015,-0.004,-0.001,0.0588,0.8265
-0.0021,-0.029,0.006,0.0714,0.6135
-0.0009,-0.039,0.024,0.0182,-0.1155
0.0072,-0.043,0.032,-0.0378,-0.36
0.0063,-0.023,0.004,-0.0238,-0.3345
-0.0078,-0.03,-0.061,0.0224,-0.288
-0.0075,-0.017,-0.089,0.0616,0.444
-0.0159,-0.037,-0.051,-0.0126,1.308
-0.0126,-0.007,-0.004,-0.0028,0.606
-0.0048,0.069,-0.032,-0.0434,0.1035
0.0033,0.068,0.053,0.0336,-0.2025
0.0054,0.061,-0.014,0.0308,-0.078
0.0069,0.072,0.031,0.063,0.39
-0.0033,0.046,0.063,0.0784,0.1905
-0.0168,0.006,0.135,-0.0112,-0.0045
-0.0288,-0.022,0.06,0.0154,-0.168
-0.0168,-0.044,0.061,0.0532,0.8295
-0.0096,-0.009,0.048,0.0742,-0.108
-0.0126,0.012,0.056,-0.0476,-0.963
-0.0057,0.01,0.067,-0.0392,-0.4995
0.0033,0.018,-0.005,-0.007,-0.2805
-0.0024,0.023,-0.034,-0.1148,-0.3675
-0.0018,0.028,-0.169,-0.1666,-0.2895
0.012,0.019,-0.246,-0.0434,-0.159
0.0183,0.022,-0.188,-0.0238,-0.147
0.0159,0.02,-0.069,-0.0154,-0.1005
0.012,0.02,-0.002,0.0308,-0.315
-0.0078,0.039,0.089,0.0546,-0.663
-0.0288,-0.003,0.062,0.1456,-0.6165
-0.0255,0.041,0.048,0.1456,-0.06
-0.0213,0.023,-0.004,0.063,0.501
-0.0141,0.001,-0.012,0.0966,0.93
0.0045,0.023,0.073,-0.0056,0.789
0.0108,0.031,0.036,-0.0336,0.126
0.0129,-0.001,0,-0.0644,-0.1815
0.0105,-0.006,-0.004,-0.1078,0.2085
0.0039,-0.041,0.018,-0.0154,0.369
-0.0012,-0.015,0.027,0.0868,0.2655
0.0105,0.028,0.03,0.0644,0.1845
-0.0051,0.047,0.019,0.1372,-0.081
-0.033,0.043,0.003,0.0966,-0.087
-0.0147,0.012,0.031,-0.0084,-0.0705
0.0012,0.003,0.024,0.035,0.273
-0.0129,-0.041,0.007,-0.0812,0.585
-0.0045,-0.02,-0.045,-0.0588,0.48
0.0036,-0.015,0,-0.0336,-0.084
0.0063,0.006,0.009,0.0224,-0.567
0.003,0.006,0.022,0.0364,-0.792
-0.0057,0.055,-0.015,0.0896,-0.804
-0.0003,0.034,0.013,0.0756,-0.225
-0.0021,0.024,0.012,0.0532,-0.9735
-0.0009,0.047,0.056,0.07,-0.762
-0.0006,0.069,0.07,-0.014,-0.0495
-0.0042,0.052,0.024,0.0154,0.264
-0.0204,0.037,0.005,-0.1372,0.174
-0.0285,0.025,-0.022,-0.0532,1.0965
-0.012,0.023,0.009,0.0308,1.143
0.0012,0.001,0.022,0.0686,0.9705
-0.0042,-0.031,-0.004,0.0532,0.3525
0.006,-0.056,0.002,-0.0154,0.069
0.0105,-0.071,-0.045,0.0378,-0.465
0.006,-0.048,0.034,0.035,-0.564
-0.0087,-0.01,-0.041,0.0826,-0.723
-0.0207,0.012,0.014,0.0378,-0.87
-0.0192,0.015,-0.025,0.0056,-0.282
-0.0114,0.009,0,0.0812,-0.4095
0.0012,0.03,0.012,0.0378,0.2895
0.0027,0.04,0.02,-0.014,0.5805
0,0.042,-0.007,0.0532,0.8985
0.0171,0.003,0.039,0.0476,0.927
0.0096,-0.009,-0.013,-0.0434,0.585
-0.0123,0.002,-0.008,-0.1078,-0.027
-0.0114,0.025,0.012,-0.1414,-0.0465
-0.0303,0.021,0.03,-0.0812,-0.0375
-0.024,0.029,-0.022,-0.1064,-0.7485
-0.0081,0.05,-0.007,0.021,-1.6275
0.0033,0.017,0.011,-0.0252,-0.5985
0.0111,0.013,0.059,-0.0448,1.2255
0.006,0.011,0.036,0.007,1.236
-0.0012,0.033,-0.006,0.0266,0.3615
0.0048,0.009,-0.006,-0.0084,-0.0645
-0.0003,-0.003,-0.017,-0.0588,-0.4605
-0.0114,0.021,0.018,-0.0028,-0.7155
0,0.023,-0.02,0.0546,-0.8385
0.0054,0.009,-0.031,0.0602,-0.5145
0.0189,-0.024,0.017,0.0742,-0.186
0.0054,-0.006,0.023,0.0588,0.2955
-0.0006,0.021,-0.003,0.077,-0.0525
-0.0114,0.021,0.007,0.0196,1.6725
-0.0144,0.034,0.022,0.0182,0.9345
-0.0111,0.058,0.089,-0.035,0.015
-0.0099,0.005,0.01,-0.0154,0
0.0027,-0.003,0.029,-0.007,0.0045
-0.0021,0.024,0.015,0.014,-0.102
0.0003,0.044,0.038,-0.0098,0.111
-0.0075,-0.014,0.041,-0.049,0.0495
-0.0138,-0.047,0.016,-0.035,0.0345
-0.0069,-0.029,0.004,0.0168,0.198
-0.0075,-0.032,0.04,0.168,0.0585
-0.0072,-0.015,0.038,0.1148,-0.2265
-0.0147,0.043,0.048,0.1176,-0.231
0.0039,0.067,0.012,0.0182,-0.2325
0.0063,0.073,0.001,-0.0756,-0.2775
0.0114,0.058,0.018,-0.0126,0.021
0.0093,0.069,-0.053,0.0672,0.144
0.0006,0.052,-0.071,0.0658,0.1875
-0.0132,0.029,-0.11,0.175,0.2565
-0.0081,-0.011,-0.062,-0.0112,0.645
-0.0102,-0.037,-0.021,0.0056,0.2595
-0.0288,-0.012,0.011,-0.1498,-0.096
-0.0111,0.03,-0.032,-0.3136,-0.5145
0.0138,-0.005,-0.052,-0.2632,-0.5475
0.0192,0.012,-0.055,0.0014,-0.3795
0.0054,0.027,-0.003,0.0854,-0.0555
-0.0063,0.054,-0.004,0.1414,-0.2865
-0.0276,0.046,0.013,0.1512,-0.495
-0.0171,0.012,0.035,0.1988,0.147
-0.0234,0.009,0.04,0.1834,0.858
-0.0093,-0.008,0.004,0.1862,0.2685
0.0078,-0.032,-0.001,0.1148,-1.092
0.0189,-0.056,0.008,-0.049,-1.1865
0.0189,0.02,0.086,-0.4088,-0.7635
0.015,0.063,0.056,-0.287,-0.3555
0.0147,0.024,0.066,-0.147,0.195
0,0.047,0.061,0.0294,0.6975
-0.0213,0.036,-0.021,-0.0028,1.257
-0.0297,0.017,0.04,0.1106,1.0935
-0.021,-0.009,0.026,0,0.6015
-0.0135,-0.025,0.079,-0.0588,0.6255
-0.0012,-0.06,0.041,-0.035,0.0015
0.027,-0.047,0.071,-0.0182,0.231
0.0096,0.015,0.018,0.0308,0.7545
-0.0024,0.001,0.033,0.0308,0.219
-0.0069,-0.01,-0.001,0.0014,-0.159
-0.0111,-0.006,0.017,-0.0434,-0.2865
-0.0099,0.016,-0.02,0.0028,0.846
-0.0006,0.014,-0.077,-0.0098,0.681
0.0033,0.037,-0.15,-0.1302,0.1305
0.0039,0.043,-0.091,-0.0644,-0.2595
-0.0006,0.036,-0.029,-0.0434,-0.639
0.0048,0.037,-0.021,0.0476,-0.5985
0.0093,0.043,-0.006,0.175,-0.1245
0.0036,0.056,0.03,0.2618,-0.006
-0.0186,0.008,0.007,0.3318,0.543
-0.0324,0.023,0.016,0.2828,0.024
-0.027,-0.007,0.017,0.2324,-0.072
-0.0168,-0.052,0.067,-0.133,-0.357
-0.0114,-0.022,-0.007,-0.3654,-0.4515
0,0.009,0.064,-0.2674,-0.129
0.006,0.031,0.1,-0.4634,-0.2955
0.0096,0.061,0.058,-0.2674,-0.363
0.0147,0.018,0.013,0.049,-0.309
0.0144,-0.041,0.001,0.1064,-0.264
0.0024,-0.055,-0.027,0.1442,-1.266
-0.0027,-0.084,-0.072,0.1624,-0.132
-0.0099,-0.098,-0.046,0.0574,0.5295
-0.006,0.004,-0.018,-0.056,0.5355
-0.0207,0.042,-0.017,0.0126,-0.081
-0.0093,0.098,0.042,0.2422,-0.261
-0.0171,0.144,0.042,0.3318,-0.0675
-0.0147,0.169,0.068,0.3038,0.9495
-0.0054,0.108,-0.001,0.1974,0.879
0.0105,0.013,0.031,0.3766,-0.567
0.0057,-0.046,0.015,0.0588,-0.354
0.0183,-0.041,-0.02,-0.5726,0.1395
0.0099,-0.017,0.011,-0.5012,-0.099
0.0033,0.032,-0.024,-0.098,-0.3825
0.0009,-0.012,0.02,0.1736,-0.5115
0.0081,-0.037,0.046,0.0504,-0.2175
0.0003,-0.014,-0.003,0.0238,0.1005
-0.0231,-0.018,0.038,0.056,0.525
-0.0342,-0.054,0.099,-0.3542,0.906
-0.0408,-0.013,0.012,-0.3234,0.102
-0.0153,-0.031,0.06,-0.0546,0.2505
-0.0021,0.013,0.026,-0.0266,0.3885
-0.0012,0.02,-0.043,-0.0322,0.756
-0.0093,0.059,-0.052,0.056,0.339
-0.0015,0.064,0.022,0.154,0.105
-0.0021,0.059,0.016,0.0602,-0.0075
0.0096,0.047,-0.008,0.0854,-0.0105
0.0054,0.049,0.005,0.0182,-0.1365
0.0057,0.012,-0.027,-0.0056,-0.162
-0.0084,0.005,-0.07,0.0196,-0.1425
-0.0075,0.025,-0.01,-0.0252,-0.474
-0.0111,-0.01,0.039,0.091,-0.4815
-0.0213,0.009,-0.055,0.077,-0.186
-0.0087,0.013,-0.024,0.0602,-0.4815
-0.0042,0.055,0.039,0.0294,-0.9285
0.0117,0.067,0.012,0.2884,-0.072
0.0165,0.034,0.03,0.0504,0.927
0.015,0.039,0.041,-0.0476,1.3395
0.015,0.011,0.068,-0.0364,0.8295
0.0102,-0.036,0.063,0.0126,0.5385
0.0063,0.021,0.035,0.0532,0.006
-0.0093,0.054,-0.057,-0.1106,0.444
-0.0246,0.055,0.017,0,0.2865
-0.0369,0.02,0.057,0.1624,0.135
-0.0309,-0.133,0.012,0.2492,0.3465
-0.0012,-0.152,-0.022,0.3094,-0.1875
0.0267,-0.093,0.003,0.2464,-0.4035
0.018,0.018,-0.039,0.0294,-0.0975
0.015,0.051,-0.014,-0.3724,-0.066
0.0153,0.023,-0.022,-0.4102,0.1005
0.012,-0.01,-0.005,-0.2058,0.0675
-0.0168,-0.044,-0.041,0.0896,-0.315
-0.0354,-0.024,0.008,0.1386,-0.3975
-0.0114,0.072,-0.058,0.308,-1.4115
0.0081,0.087,0.032,0.357,-1.788
0.0228,0.119,0.012,0.1162,-0.8775
0.0249,0.13,0.006,-0.35,-0.1005
0.0078,0.109,0.042,-0.5404,0.054
-0.0312,0.018,0.071,-0.3612,1.8855
-0.0348,0.025,0.068,-0.196,2.4255
-0.0354,0.019,0.065,-0.1344,0.1815
-0.0207,-0.069,0.051,-0.028,-0.6915
-0.0093,-0.11,0.042,-0.0252,-0.4635
0.0105,-0.112,-0.047,0.1736,-0.366
0.0183,0.002,-0.034,0.1246,-0.2925
0.0081,0.014,-0.083,0.0504,-0.333
-0.0021,0.03,-0.013,0.1022,-0.0075
-0.0132,0.06,-0.051,0.0854,-0.204
-0.0246,0.049,0.001,-0.1064,0.252
-0.0213,-0.022,-0.024,-0.056,0.6585
-0.0213,-0.014,0.018,0.0868,0.2865
0.0201,-0.011,0.048,0.1442,0.27
0.0399,-0.007,-0.005,0.1876,-1.284
0.0177,0.021,0.007,0.0602,-0.1125
0.0081,0.041,0.024,0.0644,0.3975
-0.0108,0.073,0.016,-0.1386,1.719
-0.0198,0.065,0.01,-0.1736,0.7305
-0.0231,0.05,-0.056,-0.238,0.4935
-0.0285,0.042,-0.009,-0.0448,0.372
-0.0054,0.006,0.036,0.091,-0.3465
0.0141,0.014,0.079,0.1316,-0.558
0.0255,0.032,0.069,0.1722,-0.096
0.0177,-0.021,0.063,0.1512,0.2715
-0.0114,-0.008,0.044,0.0756,0.1995
-0.0321,-0.006,0.053,0.0952,0.081
-0.0246,0.006,-0.005,0.0826,0.3825
-0.0315,0.028,0.029,0.0742,0.1515
-0.0111,0.037,0.038,0,-0.153
0.0075,-0.003,0.082,-0.0448,-1.6515
0.0066,0.032,0.069,-0.0014,-1.782
-0.0036,0.028,0.061,-0.063,-1.3755
0.0099,-0.032,0.079,-0.063,-0.996
0.0192,-0.025,0.068,0.0504,-0.2055
0.0228,-0.044,0.068,0.0602,0.597
0.0048,-0.003,0.027,0.0616,1.491
-0.0216,-0.009,-0.077,0.0266,0.7635
-0.0252,0.018,-0.033,0.1442,0.417
-0.027,0.035,-0.08,0.238,-0.171
-0.012,0.071,-0.032,0.2268,0.684
0.0066,0.046,-0.015,0.0784,0.396
0.0255,0.011,-0.088,-0.0574,-0.255
0.036,-0.019,-0.121,-0.1624,0.0675
0.0078,-0.028,-0.081,-0.2352,0.2685
-0.027,0.009,0.03,-0.3514,-0.036
-0.036,0.072,0.069,-0.3108,-0.0615
-0.0315,0.062,0.055,-0.1694,0.351
-0.0087,0.014,0.101,-0.0728,0.564
0.0201,0.015,0.028,0.0462,0.306
0.0267,-0.018,-0.003,-0.0322,0.0255
0.0105,0,-0.071,0.0168,-0.558
-0.0138,0.049,-0.088,0.0924,-0.612
-0.0153,0.001,-0.102,0.1148,-0.3285
-0.0195,0.004,-0.056,0.1512,-0.156
-0.018,-0.017,0.014,0.0756,-0.48
0.0009,-0.028,0.113,0.0476,-0.492
0.0114,-0.032,0.135,-0.0322,-0.0795
0.0174,-0.011,0.144,-0.0266,0.0375
-0.0045,0.007,0.153,0.0686,0.321
-0.0168,0.009,0.15,0.0714,1.3605
-0.0279,0.045,0.12,0.056,0.924
-0.0174,0.045,0.036,0.1372,-0.1155
-0.0111,0.017,-0.01,0.2002,-1.1145
0.0033,-0.023,-0.203,0.1232,-1.005
0.0153,-0.016,-0.22,0.112,-0.681
0.0225,0.071,-0.171,0.1092,-0.4815
0.0195,0.026,-0.071,0.0392,-0.0315
0.0108,-0.008,-0.087,0.0728,0.804
-0.006,-0.029,-0.029,0.1176,1.4325
-0.0123,-0.047,-0.023,0.1456,1.302
-0.0324,-0.015,0.011,0.1176,1.134
-0.018,0.04,0.005,-0.084,0.318
-0.012,0.075,0.054,-0.0742,-0.33
-0.0027,0.011,0.043,0.119,-1.1325
0.0168,-0.034,0.047,0.2296,-1.878
0.0231,-0.026,0.046,0.1988,-1.053
0.0222,0.002,0.04,0.1694,1.422
0.0051,0.048,0.019,0.1344,0.7065
-0.0012,0.034,0.071,0.1652,-0.3495
-0.0105,0.014,0.04,-0.0686,0.294
-0.0063,-0.028,0.089,-0.399,-0.3105
-0.0036,-0.031,-0.01,-0.7378,-0.1905
-0.0108,-0.029,0.011,-0.4704,-0.1965
-0.0201,0.042,0.029,-0.2632,-0.222
-0.015,0.033,0.043,-0.0406,0.003
0.0132,0.034,0.053,0.1274,1.098
0.0195,0.063,0.034,0.147,-0.63
0.0201,0.027,0.019,0.077,-0.9825
0.0006,0.026,-0.024,0.0966,0.0555
-0.0066,0.014,-0.016,0.1708,0.768
-0.0231,-0.035,0.032,-0.0154,0.6285
-0.015,0.024,0.025,0.0014,0.2475
-0.0039,0.03,0.043,-0.0126,-0.021
-0.0024,-0.005,0.015,0.0518,0.12
0.0051,0.008,0.005,-0.0168,-0.0945
0.0045,-0.009,0.014,-0.1806,-0.423
-0.0054,0.014,0.006,-0.4172,0.558
-0.0243,0.03,0.022,-0.2352,0.675
-0.0291,-0.001,0.021,-0.1386,-0.015
-0.0096,0.014,-0.014,-0.0602,0.6645
0.0024,0.037,0.028,-0.0994,0.771
0.027,0.027,0.074,-0.0826,0.3405
0.0183,0.002,-0.026,-0.0546,-0.1485
-0.0048,-0.006,0.025,-0.035,-0.891
-0.0123,0.023,0.056,0.077,-1.488
-0.0207,0.032,0.013,0.1372,-0.387
-0.0171,0.005,-0.035,0.126,-0.087
-0.0033,-0.033,-0.068,0.1512,0.2925
-0.0072,-0.053,-0.052,0.1764,-0.2265
-0.0036,-0.051,-0.019,0.0756,-0.45
-0.0039,-0.04,-0.03,0.126,-0.534
-0.0099,-0.005,-0.033,0.1316,0.39
0.0066,-0.006,0.014,0.0168,0.7335
0.027,-0.014,0.002,0.0308,0.417
0.0228,0.05,0.002,-0.0084,-0.0225
0.018,0.098,0.041,0.0546,-0.093
0.0012,0.058,0.033,0.084,0.0375
0.0108,-0.012,0.028,0.0756,0.357
-0.0015,-0.002,0.068,0.0644,0.741
-0.0192,0.088,0.039,0.0644,0.417
-0.0447,0.1,0,0.0098,0.4695
-0.0321,0.07,-0.005,0.0756,-0.372
-0.006,0.014,0.04,0.0644,-0.33
0.0024,-0.025,0.082,0.0728,-0.5565
0.0063,-0.01,-0.006,-0.0112,-1.0395
-0.0069,-0.094,0.024,-0.0056,-0.729
-0.0093,-0.113,0.071,0.0084,-0.4485
-0.0078,-0.092,0.035,-0.0728,0.7215
0.0069,-0.002,0.045,-0.0546,0.6405
0.0186,0.014,-0.018,0.0406,0.321
0.0237,0.022,0.002,0.147,0.2145
0.0186,0.013,0.012,0.1302,0.024
0.0027,0.038,0.042,0.1568,0.285
-0.0336,0.036,-0.027,0.1722,0.162
-0.0429,0.026,-0.045,0,0.114
-0.0204,0.014,-0.006,-0.161,-0.2085
-0.0153,-0.054,0.043,-0.2086,-0.5955
0.0009,-0.027,0.001,-0.252,-1.1355
0.0243,0.037,0.02,-0.1876,-0.2655
0.0411,0.06,0.095,-0.0644,0.2835
0.0303,-0.002,0.06,-0.0014,1.041
0.0156,-0.005,0.063,0.0014,0.8565
-0.0045,0.005,-0.081,0.0196,0.4455
-0.0192,0.036,-0.101,0.119,0.552
-0.0312,0.008,-0.051,0.2016,-0.129
-0.0339,-0.01,-0.026,0.1764,-0.2985
0.0009,-0.048,0.033,0.196,-0.444
-0.0054,-0.04,-0.008,0.0504,-0.2175
0.0081,0.006,0.004,0.0266,-1.4895
0.0201,0.012,0.091,-0.0028,-0.9465
0.0306,0,0.072,-0.021,0.4155
0.0201,-0.059,0.07,-0.1316,1.29
0.0201,-0.007,0.03,-0.0392,-0.0195
0.015,0.052,-0.034,0.0378,-0.867
-0.0111,0.101,-0.01,0.042,0.7455
-0.0216,0.112,0.032,-0.0042,0.6525
-0.0297,0.121,-0.069,-0.1484,0.891
-0.0174,0.084,-0.025,0.007,2.106
-0.0438,0.103,0.027,0.091,0.6285
-0.0411,0.056,0.009,0.1596,-0.0075
-0.0153,0.047,-0.023,0.0952,-0.7395
-0.006,-0.061,-0.048,0.091,-0.645
0.0027,-0.084,-0.004,0.0616,-1.014
0.0069,-0.094,-0.008,-0.0378,-0.3405
-0.0135,-0.035,0.066,-0.1372,0.1095
0.003,-0.013,0.036,-0.238,-0.1665
0.0078,-0.05,-0.013,-0.0728,-0.9465
0.0108,-0.039,0.046,0.077,-0.9645
0.0183,-0.016,0.022,0.014,-0.951
0.0195,0.041,0.038,0.1106,-1.2825
0.0114,0.04,0.075,0.0336,-0.0735
0.0162,0.057,0.082,0.1302,1.332
0.0141,-0.004,0.051,0.1232,1.0665
0.0033,-0.019,0.058,0.1162,1.5045
-0.0021,-0.068,0.049,0.0028,1.5885
-0.0141,-0.086,0.033,0.0728,0.786
-0.0255,-0.045,0.011,0.1358,0.168
-0.0459,0.016,-0.003,0.098,0.0975
-0.0216,0.1,-0.066,0.0756,0.09
0.0063,0.151,0.013,0.028,-1.5405
0.0195,0.109,-0.004,-0.2086,-1.776
0.0039,0.05,-0.03,-0.455,-0.4845
-0.0087,0.036,0.016,-0.2184,0.084
-0.0144,0.038,0.046,0.0224,0.1515
-0.0018,-0.005,0.053,0.0546,0.123
0.0045,0.008,0.033,-0.1204,-0.171
0.0042,0.042,0.017,-0.1736,0.0045
0.012,0.026,-0.019,0.0266,0.1755
0.0006,-0.038,0.003,0.0392,-0.006
-0.0093,-0.054,-0.037,0.0574,0.0105
-0.0135,-0.071,0.007,0.0322,0.7965
0.0054,0.005,0.022,0.049,0.54
0.0093,-0.023,0.014,0.0602,0.1215
-0.0003,-0.068,0.024,0.0378,0.0015
-0.0123,-0.009,0.024,-0.0742,-0.1395
-0.0048,0.04,0.011,0.0476,-0.207
0.0105,0,0.029,0.1204,-0.48
0.0084,0.02,-0.053,0.0966,-0.2235
-0.0015,0.048,0.01,0.1316,-0.0465
-0.003,0.007,-0.058,0.0742,-0.3555
-0.0171,0.008,-0.036,0.0588,0.495
-0.018,0.02,0.028,-0.0014,0.945
-0.0015,0.04,-0.011,-0.1386,0.345
0.012,0.05,0.031,-0.1414,-0.045
0.0144,0.04,0.105,0.0756,-0.453
0.0063,0.001,0.087,0.203,-0.4455
0.0012,-0.057,0.061,0.2562,0.762
-0.0126,-0.054,0.063,0.0952,0.699
-0.0264,0.014,0.028,0.0308,-1.0965
-0.0009,0.039,0.005,0.0378,-0.651
0.0021,0.014,0.046,-0.1134,-0.594
0.0096,-0.017,-0.036,-0.1204,-0.1605
0.0135,-0.015,-0.092,-0.1092,0.3885
0.0282,0.036,-0.086,-0.1372,0.765
0.0216,0.04,-0.077,-0.2352,0.918
-0.0021,0.038,-0.064,-0.2436,0.9165
-0.0153,-0.012,-0.049,-0.0826,0.3225
-0.0318,-0.044,-0.039,0.0126,0.312
-0.012,-0.044,-0.053,0.1736,0.1965
-0.0147,0.02,-0.032,0.2492,0.4395
-0.0225,0.062,0.055,0.266,0.639
-0.0051,0.027,0.052,0.2884,-0.6315
0.006,0,0.078,0.1694,-1.002
0.0006,-0.007,0.035,-0.1106,-0.8595
0.0102,0.054,0.023,-0.0434,-0.3135
0.0021,0.028,0.063,0.119,0.3105
0.0024,0.024,0.078,0.2772,0.177
0.0081,0.065,-0.048,0.2072,-1.176
0.0045,0.02,-0.003,-0.2058,-0.495
-0.0024,-0.029,-0.057,-0.3738,0.024
-0.0102,-0.128,-0.033,-0.273,-0.498
0.0159,-0.062,-0.021,-0.175,-0.843
0.0156,-0.007,0.059,0.245,-0.024
0.0006,0.029,0.088,0.4144,0.3795
-0.0012,0.007,0.057,0.427,0.384
-0.0108,0.044,0.005,0.2016,0.417
0.0009,0.022,0.063,0.2506,0.9015
0.0036,0.031,0.057,-0.1484,0.285
-0.0093,0.018,0.036,-0.3066,-0.3135
0.0108,0.04,-0.022,-0.5082,-1.161
0.0201,0.02,0.038,-0.1694,-0.132
-0.003,0.065,-0.018,0.182,1.8615
-0.0087,0.063,0.039,0.1652,1.0065
0.0015,-0.05,0.009,-0.007,-0.5145
-0.0036,-0.071,0.049,-0.2702,-0.2925
-0.0141,-0.017,-0.018,-0.3864,-0.321
-0.0264,-0.041,0.014,-0.1974,-0.3255
-0.0291,0.049,0.006,0.0294,0.6405
-0.0081,0.082,-0.03,0.1288,1.317
0.0141,0.064,-0.093,0.1484,0.834
0.0261,0.039,-0.063,-0.2604,-0.6195
0.0081,0.022,-0.036,-0.2338,-1.0755
-0.0225,0.012,0.04,-0.035,-0.5115
-0.0213,-0.018,0.008,0.0784,0.084
-0.0066,0,0.046,0.1596,0.3075
0,-0.012,-0.013,0,-0.45
0.0012,-0.005,0.027,-0.0322,-0.999
0.0108,-0.002,0.011,-0.1764,-0.213
-0.0021,-0.002,0.029,-0.2352,-0.0405
0.0051,0.059,-0.027,-0.0686,0.4575
0.0186,0.01,0.04,0,0.435
0.0207,-0.026,0.007,0.0658,0.567
0.0069,-0.022,-0.011,0.0182,0.4965
-0.0114,-0.02,-0.016,0.0546,-0.3705
-0.0081,0.03,0.017,0.1036,-0.6825
-0.0096,0.054,-0.013,0.0784,-0.234
-0.0066,0.04,0.009,0.1512,0.5775
0.0159,0.046,0.102,0.1554,0.699
0.0138,-0.001,0.13,0.175,0.9255
0.0123,-0.02,0.078,0.1722,0.636
-0.0015,-0.025,0.07,0.098,-0.114
-0.0114,-0.025,0.102,0.07,0.2055
-0.0201,0.047,0.105,0,-0.9915
-0.0282,0.049,0.088,0.0252,-1.1535
-0.0345,0.018,0.036,0,-0.468
-0.0108,0.014,0.021,0.0658,-0.3585
0.0195,-0.009,-0.04,0.0686,-0.516
0.009,0.038,-0.184,0.1764,-0.03
-0.0021,0.026,-0.173,0.3178,-0.2475
-0.0054,0.038,-0.027,0.4256,-0.3255
0.0063,0.065,-0.025,0.2856,0.096
0.0111,0.058,-0.037,0.1008,0.594
-0.0081,-0.006,-0.093,-0.0084,1.2675
-0.0048,-0.033,-0.072,-0.273,1.155
-0.0015,-0.01,-0.15,-0.2506,0.3765
-0.0147,-0.046,-0.094,-0.1092,0.537
-0.0174,-0.029,-0.074,-0.1456,-0.4185
-0.0063,-0.029,-0.086,-0.2072,-1.1715
-0.0072,0.003,0.005,-0.1596,-0.357
0.0063,0.012,0.052,-0.1204,-0.096
0.0108,0.025,-0.012,0.0448,-0.603
0.0171,0.013,0.02,-0.0798,-0.2625
0.0117,-0.046,0.089,-0.063,0.405
0.006,-0.014,0.115,0.0196,0.6315
0.0102,0.026,0.145,0.0378,0.285
0.0102,0.043,0.108,-0.0742,0.42
0.0087,0.01,0.064,-0.0686,0.573
-0.0042,0.091,0.084,0.035,-0.021
-0.0072,0.093,-0.026,0.0448,-0.027
-0.0303,0.004,-0.106,0.0434,0.3225
-0.0162,-0.036,-0.114,0.091,-0.846
-0.0084,-0.022,-0.041,0.2072,-0.6225
0.0168,-0.052,0.033,0.1274,-0.8595
0.0147,-0.036,0.141,0.0952,0.285
0.0138,-0.002,0.179,0.0434,-0.0975
-0.0105,0.023,0.175,0.0168,-0.8235
-0.0093,0.089,0.139,-0.0672,-0.2985
-0.0144,0.026,0.146,-0.105,1.0425
-0.0105,-0.021,0.092,-0.0182,0.87
0.0018,-0.042,0.025,0.0966,0.429
-0.0075,0.026,-0.067,0.0924,-0.3075
-0.0093,0.039,-0.177,0.1134,-0.267
-0.0009,-0.019,-0.197,0.0714,0.177
-0.0057,-0.053,-0.173,-0.0098,0.5775
-0.0009,0.006,-0.097,-0.084,0.1545
-0.0024,-0.067,-0.066,-0.0812,-0.0555
0.0153,-0.054,0.018,0.021,0.2265
0.0237,-0.066,0.047,0.0322,-0.2415
0.0057,-0.006,0.018,0.0546,-0.363
-0.015,0.06,0.061,0.1134,0.1545
-0.009,0.089,0.015,0.21,0.8685
0.0249,0.105,0.064,0.385,0.0945
0.0213,0.126,0.084,0.2744,-2.0565
0.0237,0.04,0.049,0.2086,-0.567
0.0087,-0.002,0.041,0.2506,0.5055
-0.0225,-0.029,-0.013,0.0686,1.3455
-0.0453,0.018,-0.13,0.1218,1.122
-0.0492,0.094,-0.061,-0.0406,0.0825
-0.0303,0.056,-0.016,-0.2296,-0.978
-0.0153,0.011,-0.004,-0.3752,-0.0555
0.0105,-0.053,0.009,-0.2702,-0.5145
0.012,-0.009,0.066,-0.182,-0.3825
0.0153,-0.038,0.036,-0.2912,-0.3975
-0.0084,-0.017,0.031,-0.2926,0.0435
-0.0054,0.034,-0.02,-0.1246,1.278
0.0078,0.018,0.026,-0.2408,0.0435
0.0192,-0.046,0.084,-0.0476,-0.1965
0.018,-0.033,0.039,0.0896,-0.138
-0.0018,0.019,0.077,0.2352,-0.216
-0.0054,0.033,0.076,0.3374,0.4485
-0.0048,0.081,0.06,0.1974,-0.2085
-0.0027,0.024,-0.023,0.0042,-0.528
-0.012,0.023,-0.012,-0.0686,0.036
0.0054,0.026,-0.007,-0.2884,0.474
0.0105,-0.006,-0.008,-0.4886,-0.6885
0.0096,-0.051,0.015,-0.2996,-1.248
0.0189,-0.059,0.005,-0.1274,-0.288
-0.0015,-0.034,-0.013,0.1512,0.084
-0.015,0.063,-0.009,0.2338,1.0365
-0.0189,0.095,-0.038,0.2016,2.0295
-0.0165,0.061,0.011,0.1498,0.855
-0.0099,0.041,0.016,0.1246,-0.1335
-0.0006,0.008,-0.016,0.1792,-1.005
0,0.018,0.045,0.0952,-0.42
0.003,-0.05,0.015,0.0224,0.2385
0.0054,-0.103,0.054,-0.007,-0.204
0.0006,0.004,0.025,0.098,-0.111
-0.015,0.027,0.026,0.0532,-0.186
-0.0087,0.068,-0.023,0.1526,0.2745
0.0003,-0.026,-0.06,0.2478,0.057
0.0087,-0.04,0.021,0.21,0.0675
0.0027,0.036,0.008,0.203,-0.642
-0.0021,0.084,0.048,0.21,-0.357
-0.0009,0.058,0.008,0.0434,0.3555
-0.0018,0.013,-0.029,-0.1946,0.7995
-0.0147,0.001,-0.035,-0.1876,0.4605
-0.0195,-0.01,-0.062,-0.0686,-0.396
-0.0045,-0.037,0.025,-0.1036,-0.5925
0.0153,-0.085,0.033,-0.1008,-0.4005
0.0129,-0.057,0.033,-0.1372,0.417
0.0213,-0.024,0.01,0.0014,0.576
0.027,0.038,-0.065,0.0476,0.4515
0.0075,0.067,-0.098,0.091,-0.675
0.0009,0.073,-0.145,0.1008,-1.563
-0.0129,0.116,-0.079,0.1302,-0.489
-0.0156,0.074,-0.046,0.0882,0.681
0.0081,0.032,0.023,-0.0546,0.399
0.0042,0.045,-0.01,0.0098,1.143
-0.0039,0.018,-0.004,-0.063,0.6015
-0.015,-0.005,0.028,-0.1582,-0.0795
-0.0162,0.04,0.026,-0.0322,-0.5085
-0.0108,0.01,0.038,-0.0434,-0.078
-0.0165,0.026,0.058,0.0168,0.537
-0.0012,0.013,-0.033,0.0392,0.078
0.0135,0.037,0.015,0.0812,1.374
0.0153,-0.021,0.042,0.1302,0.033
-0.0009,-0.064,-0.012,-0.0308,-0.81
0.0081,-0.082,0.022,0.0196,-0.1875
0.0117,0.008,0.016,0.0028,-0.756
0.0006,-0.003,0.065,0.084,-0.9585
-0.0036,0.027,0.045,0.0294,-0.7425
-0.0189,0.021,0.055,0.049,0.0645
-0.0351,0.027,0.01,0.0406,0.186
-0.0234,0.062,-0.018,0.0686,-0.084
0.0162,0.008,0.039,0.0434,0.0555
0.0351,-0.041,0.04,0.112,1.2225
0.0309,-0.063,0.022,0.112,0.912
0.0075,0.044,-0.005,0.098,0.5655
-0.0261,0.056,-0.027,-0.1288,-0.708
-0.0228,0.065,0.085,-0.0126,-1.9245
-0.0267,0.054,0.008,-0.0854,-0.1035
-0.0465,0.045,0.021,0.21,0.792
-0.0117,0.03,0.062,0.3122,0.456
0.0177,-0.001,0.027,0.2618,0.252
0.0315,0.03,0.036,0.1666,0.654
0.0291,-0.02,-0.036,0.168,0.3255
0.0117,-0.033,0.016,0.21,-0.2865
-0.0072,-0.078,-0.032,-0.007,-0.7845
-0.0243,-0.031,0.005,-0.3514,-0.435
-0.0507,0.01,0.015,-0.4816,0.6735
-0.0105,0.035,0.037,-0.3108,-0.0465
0.0033,0.011,0.066,-0.2086,-0.141
0.0084,0.025,-0.003,-0.385,0.7125
0.0168,-0.029,0.025,-0.4494,0.069
-0.0156,-0.024,-0.006,-0.3402,-1.074
-0.0123,-0.034,0.017,-0.0602,-0.453
-0.0165,0.055,0.043,0.0966,0.6435
-0.0042,0.074,0.034,0.1386,0.369
0.0042,0.17,0.006,0.1344,-0.1875
0.0147,0.129,-0.002,0.126,-0.192
0.027,0.054,-0.063,0.0448,-0.4605
0.0024,-0.034,-0.097,0.0616,0.0615
-0.0141,-0.049,-0.066,-0.049,0.816
-0.0012,-0.054,-0.044,-0.1218,0.684
-0.0057,-0.106,-0.011,0.0378,1.2
-0.0096,-0.056,-0.004,0.0462,0.249
-0.0081,-0.008,-0.033,0.1638,-0.5895
-0.006,-0.015,-0.091,0.1428,-0.909
0.0012,-0.03,0.047,0.119,-0.1545
0.0006,-0.002,-0.018,0.1456,0.2655
0.0099,0.096,0.035,0.112,0.837
-0.0069,0.077,0.061,0.3626,0.567
-0.0189,0.028,0.049,0.1904,-0.063
-0.0189,0.006,0.044,-0.1624,-0.396
-0.042,0.016,0.03,-0.2786,-0.8175
-0.0177,-0.014,0.013,-0.2338,-0.489
0.0072,-0.02,0.094,0.0434,-0.5415
0.0198,-0.012,0.198,-0.063,-0.2175
0.0321,0.031,0.185,-0.042,-0.4005
0.0264,0.035,0.11,0,-0.8775
0.0021,0.041,0.044,0.1722,0.1995
-0.0009,0.016,-0.004,0.1316,0.5775
-0.0024,0.045,0.023,0.0994,0.4305
-0.006,0.016,-0.066,0.1834,0.7665
-0.0183,0.005,-0.108,0.0686,0.348
-0.0159,0.022,-0.203,-0.0098,-0.486
-0.009,0.006,-0.182,-0.1274,-1.1175
-0.0027,-0.048,-0.143,-0.126,0.1785
0.0117,-0.048,-0.053,-0.0714,2.0775
0.0252,-0.014,-0.012,0.0574,1.458
0.0186,0.054,0.03,0.0938,-0.8175
0.0081,0.086,0.046,0.168,-0.774
-0.0072,0.064,0.063,0.2058,-0.3465
-0.0213,0.065,0.029,0.1414,-0.549
-0.015,0.086,0.012,0.007,-0.5145
-0.0141,0.073,0.044,-0.0168,-0.4065
0.0078,0.026,0,-0.0532,-0.198
0.0102,-0.026,-0.023,0.0742,1.287
-0.0015,-0.046,-0.019,0.035,0.465
-0.0189,-0.063,-0.012,0.0028,-0.036
-0.0153,-0.037,0.011,-0.0574,0.261
-0.0039,-0.002,0.004,-0.1988,-0.783
0.0156,0.028,0.03,-0.2366,-2.16
0.0231,0.034,0.069,-0.2324,-1.737
0.0141,0.035,-0.033,-0.2128,-0.636
-0.0024,-0.004,0.034,-0.2688,1.074
-0.0078,-0.019,0.081,-0.0588,2.628
-0.0066,0.088,0.05,0.2562,2.688
-0.0297,0.107,0.031,0.3248,1.2885
-0.021,0.053,0.067,0.1792,0.342
0.0114,0.003,0.095,0.126,-0.4845
-0.0075,-0.077,0.028,0.0644,-0.339
-0.0072,-0.05,0.074,0.0714,0.198
-0.0267,-0.002,0.106,0.14,-2.205
-0.0234,-0.012,-0.014,0.0952,-1.6335
-0.0168,-0.018,-0.017,-0.0238,-1.5555
-0.0084,-0.018,-0.018,-0.0182,0.129
0.0063,0.005,-0.049,-0.1078,0.927
0.0093,0.018,0.01,-0.0826,0.4875
0.0117,-0.007,0.016,-0.0364,0.858
0.0261,-0.017,0.023,0.0574,0.234
0.0135,0.02,-0.045,0.1372,0.1065
-0.0153,-0.005,-0.048,0.1148,1.2075
-0.0231,0.018,0.012,-0.0532,1.359
-0.0108,0.07,-0.017,-0.1904,0.885
0.0048,0.083,-0.018,-0.1316,0.141
0.0189,-0.025,-0.053,-0.0798,-0.636
0.0078,0.031,-0.034,-0.0868,-1.3215
0.0126,0.032,-0.004,-0.1988,-0.99
0.0027,0.021,-0.008,-0.0084,-0.6795
-0.0054,0.004,-0.001,0.3304,-0.375
-0.0165,0.013,0.067,0.3696,-0.7425
-0.0057,0.043,0.005,0.3878,-1.452
-0.0174,0.072,0.032,0.6412,-0.8115
-0.0267,0.027,0.049,0.5208,1.7775
0.0039,-0.038,0.027,0.4592,1.3935
0.0417,-0.04,0.026,0.112,0.0855
0.0438,-0.007,0.055,-0.3654,-1.7355
0.0114,0.06,0.02,-0.6258,-1.3365
-0.0186,0.069,-0.031,-0.6608,-0.3405
-0.0276,0.029,-0.05,-0.6832,1.629
-0.0324,-0.073,0.013,-0.4592,3.42
-0.057,-0.054,-0.031,-0.2534,2.8155
-0.0105,-0.017,-0.017,-0.2072,-0.3615
0.0294,0.041,-0.026,0.028,-1.4565
0.0282,0.003,0.006,0.1456,-1.113
0.0126,0.036,-0.036,0.1946,-0.0345
0.0018,0.041,-0.011,0.0854,0.2865
-0.0033,0.058,0.032,0.098,-0.5085
-0.0273,0.066,0.041,0.2772,-1.278
-0.0162,0.031,0.016,0.1218,-0.639
-0.0207,0.071,0.014,0.0462,-0.2535
-0.0276,-0.03,-0.026,-0.1358,-0.1275
-0.0003,-0.01,-0.009,-0.3024,0.2025
-0.0012,-0.026,-0.009,-0.2198,0.786
-0.0033,-0.039,0.039,0.0672,0.771
-0.0003,-0.025,0.05,0.1134,-0.0555
0.0024,-0.002,0.003,0.2044,0.5385
0.0114,0.06,0.068,0.2002,-0.2205
0.0042,0.109,0.045,0.196,-0.6225
0.0012,0.095,0.067,0.2002,-0.495
-0.0006,0.036,0.001,0.0224,-0.483
-0.0075,-0.032,0.035,0.0546,-0.2805
-0.0096,-0.031,0.039,0.1904,0.078
-0.0201,0.003,0.08,0.203,0.3765
-0.009,-0.011,0.039,0.1722,0.507
-0.0111,-0.048,0.011,0.1288,-0.0855
0.0042,-0.005,0.025,0.084,0.129
0.0084,-0.028,0.033,0.0042,0.237
0.0039,-0.034,0.018,-0.1792,0.762
-0.0078,-0.003,-0.013,-0.2422,0.459
-0.0063,0.016,-0.11,-0.1736,-0.438
-0.0012,-0.006,-0.092,-0.1246,-0.246
0.0126,-0.043,-0.146,-0.077,0.8955
0.0201,-0.059,0,-0.0476,0.6915
0.0126,-0.026,0.023,0.1162,0.072
0.0141,-0.002,0.019,0.2352,-0.204
-0.0153,0.075,0.001,0.0798,0.0225
-0.0528,0.089,0.027,0.0308,0.3225
-0.0396,0.068,-0.002,0.0014,0.1215
-0.0111,0.077,0.032,-0.0308,0.159
-0.006,0.09,0.024,-0.084,0.3615
0.0153,0.091,0.039,0.0812,-1.0755
0.0204,0.041,0.018,0.0882,-1.5465
0.0315,0.053,-0.04,0.0252,-2.226
0.018,-0.013,-0.129,-0.0392,-0.465
-0.015,-0.05,-0.037,-0.21,0.366
-0.0411,0,-0.034,-0.392,1.0335
-0.033,-0.002,0.03,-0.28,1.176
0.006,0.084,0.081,-0.0266,0.2175
0.03,0.098,0.125,0.0616,0.456
0.0237,0.045,0.078,0.0686,0.192
-0.0033,0.028,-0.017,0.0364,0.2865
-0.0153,-0.007,-0.012,0.2338,-0.732
0.0042,0.044,-0.108,0.4074,-0.753
-0.0081,-0.007,-0.067,0.483,0.603
-0.0297,-0.097,-0.057,0.4186,0.4785
-0.0054,-0.096,-0.013,0.3612,-2.1825
0.0261,-0.05,0.009,0.2758,-1.9755
-0.0021,-0.009,-0.007,0.1722,-0.768
-0.0063,0.023,-0.017,-0.378,0.9075
-0.0024,0.057,0.008,-0.8974,2.325
-0.0069,0.081,-0.051,-1.085,2.745
-0.0096,0.049,0.049,-0.5824,0.507
0.0042,-0.042,0.067,0.0672,-0.0795
0.0006,-0.083,0.022,0.2618,0.0135
0.0003,-0.055,0.082,0.1974,-0.207
0.0036,-0.075,0.055,0.1624,-0.612
0.0111,-0.052,0.072,-0.0546,-0.684
0.0102,-0.025,-0.017,-0.07,0.192
-0.0075,0.049,0.026,-0.0308,1.257
-0.0294,0.084,0.104,0.0126,0.426
-0.0177,0.104,0.069,-0.056,-0.5535
-0.0198,0.099,0.099,-0.0392,-0.537
0.0006,0.028,0.147,0.0686,-0.0315
-0.0186,0.005,0.102,0.0616,-0.177
-0.0219,0.049,0.102,0.0084,0.3345
-0.0069,0.047,0.228,0.0014,0.516
0.0096,-0.042,0.175,0.2016,0.354
0.0279,-0.012,0.099,0.196,-0.36
0.0417,0.041,0.017,0.1372,-1.578
0.027,0.061,-0.108,0.1246,-0.8265
0.0003,0.019,-0.212,0.2646,-0.276
-0.0396,0.004,-0.343,0.1792,0.1545
-0.0393,-0.003,-0.318,0.2324,0.7425
-0.0333,-0.004,-0.266,0.07,-0.3255
0.0102,-0.027,-0.248,0.0196,-0.081
0.0519,-0.009,-0.123,-0.0154,0.642
0.0162,-0.009,-0.083,-0.0644,1.5015
-0.0084,0.023,0.042,-0.0168,0.519
-0.0021,0.064,0.034,-0.0434,-0.084
-0.0207,0.063,0.011,-0.2422,-0.516
-0.0189,0.008,0.044,-0.2884,-1.0515
-0.0072,-0.038,0.065,-0.2674,-0.7815
0.009,-0.036,0.038,-0.0798,-0.507
0.0018,0.024,0.078,0.1218,-0.399
0.0207,0.023,0.037,0.2604,-0.837
0.015,0.005,0.051,0.1288,-0.6765
-0.0075,0.042,0.004,-0.07,-0.1785
-0.0327,0.096,-0.001,-0.2982,0.7455
-0.0102,0.045,0.017,-0.294,0.3135
0.0045,-0.004,0.04,-0.2058,0.7215
-0.0114,-0.062,0.045,0.2352,1.0845
-0.006,-0.047,0.062,0.392,3.2835
0.0153,0.033,0.082,0.4032,1.38
0.0117,0.11,0.018,0.3388,-0.6945
-0.0021,0.101,0.068,0.1708,-0.4035
-0.0408,0.066,0.042,0.1876,-0.7725
-0.0318,0.047,-0.02,-0.1904,-1.6995
-0.0072,0.022,0.061,-0.623,-1.3245
-0.0003,-0.082,0.004,-0.539,0.579
-0.0054,-0.077,0.034,-0.2618,1.131
0.0051,-0.037,0.087,-0.1848,-0.8145
0.0183,-0.033,0.052,-0.1344,-0.6015
0.0135,0.019,0.074,-0.196,-0.072
-0.0102,0.009,0.033,-0.1078,1.074
-0.0324,0.054,0.002,0.238,0.8625
-0.0312,0.021,-0.018,0.2744,0.816
-0.0231,0.018,-0.034,0.077,0.5415
0.0156,0.033,-0.072,0.0532,0.1425
0.0009,0.028,0.019,0.0882,-0.24
0.0195,-0.01,0.023,0.1148,-0.108
0.0321,0.025,0.064,0.182,-0.9855
0.0333,0.05,0.009,0.056,-1.146
0.0147,0.043,0.023,-0.1624,-0.342
0.0126,0.031,0.07,-0.0266,0.723
0.0114,0.039,0.067,0.0322,1.1295
-0.0321,0.041,0.049,0.1302,0.9525
-0.042,-0.013,0.019,0.1428,0.738
-0.0204,-0.007,-0.045,0.175,0.495
-0.0183,0.02,-0.028,0.2828,-0.9705
-0.0048,0.043,0.053,0.2772,-1.5525
0.0009,-0.004,0.01,0.0896,-2.034
0.0045,0.004,-0.031,0.0392,-0.7575
-0.0084,-0.016,-0.062,-0.0112,0.384
-0.021,-0.034,-0.021,-0.0448,1.1655
0.0069,-0.009,-0.054,-0.0966,0.2865
0.009,0.023,-0.086,-0.196,0.42
0.0093,-0.003,-0.058,-0.1988,0.687
-0.0084,-0.06,-0.027,-0.0742,0.4455
-0.0165,-0.084,-0.019,-0.0574,-0.2085
0.0051,-0.028,0.031,-0.0224,-0.552
0.0174,-0.016,0.02,0.0056,-0.6885
0.0258,0.012,0.09,0.0672,-0.186
0.0198,0.095,0.023,0.1078,-0.135
-0.0231,0.146,-0.046,0.1358,-0.4125
-0.0525,0.096,0.045,0.1988,-0.435
-0.0144,-0.002,0.038,0.3094,-0.3105
0.0351,-0.039,0.048,0.1974,-0.303
0.039,-0.034,0.047,0.1288,0.0915
0.0288,0.005,0.068,0.021,-0.015
0,0.009,0.061,-0.1596,0.057
-0.0315,-0.007,-0.032,-0.4592,0.0975
-0.0387,0.047,-0.013,-0.4578,0.834
-0.0282,0.061,-0.03,-0.2982,0.4485
-0.0186,0.089,-0.046,-0.1036,-0.4275
-0.0027,0.067,-0.03,0.0126,0.138
0.015,-0.018,-0.007,0.1848,-0.117
0.0153,-0.103,0.031,0.1736,-0.0915
-0.0018,-0.088,0.019,0.147,1.4775
-0.0069,0.035,0.027,0.1806,0.495
0.0012,0.108,0.021,0.1344,-0.6825
0.0111,0.08,0.021,0.0896,0.459
-0.0015,0.002,0.027,0.049,0.7965
-0.0084,-0.002,0.06,0.14,-0.21
-0.0021,0.036,-0.014,0.4704,1.395
-0.0273,0.052,0.018,0.6132,1.401
-0.0324,0.009,-0.003,0.3808,-0.1755
-0.0147,-0.028,0.018,0.3808,-0.8775
0.015,-0.003,0.034,0.1974,-2.1315
0.0204,-0.025,0.033,0.0364,-2.3745
0.0156,-0.01,-0.012,-0.2086,-1.9455
0.0153,-0.006,0.024,-0.7644,1.365
-0.0015,0.007,-0.012,-1.2488,1.6935
-0.0099,0.058,0.031,-0.7924,2.4195
-0.0033,0.095,-0.015,-0.3724,1.923
-0.0081,0.081,-0.078,-0.3052,0.813
0.0054,0.053,-0.049,-0.2576,0.0435
0.0051,0.019,-0.004,-0.1456,-0.042
0.0039,0.027,0.017,-0.1428,-0.312
-0.0072,0.024,-0.007,0.224,0.3915
0.0045,0.002,0.079,0.273,-1.164
0.0204,-0.047,0.02,0.154,-1.131
0.0009,-0.029,-0.05,0.1162,-0.882
0.012,-0.045,0.021,0.1358,-1.0515
-0.0306,-0.013,-0.022,0.0224,-0.183
-0.0537,0.057,0.005,0.1078,0.618
-0.0141,-0.009,0.032,0.0924,0.1755
0.0129,-0.011,0.098,0.133,-0.336
0.0108,-0.006,-0.007,0.021,-0.8715
0.0075,0.012,0.021,0.0028,-0.792
-0.0021,0.018,0.057,0.0854,-1.2645
-0.0075,0.003,0.054,0.1344,-1.536
-0.0048,-0.028,0.026,0.0658,-0.2715
-0.0069,-0.037,0.02,0.035,0.6105
0.0132,-0.015,-0.008,0.035,0.8055
0.0156,-0.007,0.008,0.0742,1.4025
-0.009,-0.024,-0.043,0.0308,0.39
-0.0285,-0.007,0.033,0.1372,0.2115
-0.0261,0.037,-0.021,0.1288,0.024
-0.0192,0.057,0.042,0.1162,0.216
-0.0033,0.098,-0.042,0.077,-0.372
0.0192,0.091,-0.022,0.0504,-0.9795
0.0261,-0.003,-0.062,0.1554,-0.2115
0.0294,-0.007,0.031,0.196,0.573
0.0045,-0.052,-0.016,0.0742,2.016
-0.0123,-0.031,-0.01,-0.0854,1.3695
-0.0141,-0.029,0.022,0.0098,0.1365
-0.0177,0.036,-0.061,0.0868,-0.3345
-0.0069,0.108,0.047,0.1204,-0.903
0.0081,0.085,0.035,-0.0602,-0.2445
0.0045,0.027,0.01,-0.1624,-0.1755
0.0027,0.012,0.042,-0.2408,0.078
-0.0006,0.001,0.044,-0.1722,1.284
0.0045,-0.07,0.056,-0.0112,1.908
-0.0081,-0.074,0.057,-0.0588,0.48
-0.009,-0.055,0.092,-0.063,-0.4815
-0.0192,0.006,0.027,0.0462,-0.501
-0.0096,0.027,-0.002,-0.0126,-0.168
-0.0108,0.066,0.037,-0.0672,0.705
0.0087,0.052,0.051,-0.021,-0.3585
0.0078,0.029,0.06,0.0336,-1.506
0.0015,0,0.059,-0.2338,-0.7635
-0.006,0.037,-0.028,-0.1358,-0.684
-0.021,0.029,-0.08,0.1862,-0.762
-0.0075,0.012,-0.017,0.189,-0.462
0.0033,0.028,0.011,0.1932,-1.0305
0.0084,-0.025,0.07,0.3024,1.1055
0.0087,-0.033,0.043,0.1666,1.341
0.0114,-0.027,-0.085,0.077,0.486
0.0048,-0.007,-0.103,0,0.0555
0.0096,-0.055,-0.058,-0.0966,0.0075
0.0075,-0.005,-0.001,-0.2926,0.387
0.0021,0.037,-0.002,-0.2982,0.423
0.0141,0.019,-0.009,-0.1862,0.0135
0.0141,-0.001,-0.017,-0.0098,0.0585
-0.0108,0.023,-0.008,-0.0574,0.933
-0.0231,0.037,0.062,0.0322,0.291
-0.0192,0.069,0.056,0.3948,-1.437
-0.0213,0.067,0.023,0.364,-2.6235
-0.0393,0.061,0.071,0.399,-0.8685
-0.0261,0.022,0.038,0.3738,-0.108
-0.0042,0.014,0.03,0.1876,0.6705
0.0354,0.009,0.048,-0.1876,0.6885
0.0483,0.043,0.015,-0.6216,0.6735
0.018,0.036,-0.01,-0.6832,0.1725
-0.009,-0.008,-0.023,-0.5236,0.087
-0.0048,-0.033,0.031,-0.2968,0.396
-0.0156,0.029,0.005,-0.1582,0.177
-0.018,-0.01,0.069,-0.1148,-1.875
-0.0087,-0.02,0.143,-0.0448,-1.989
-0.0108,-0.011,0.149,-0.0616,0.861
-0.009,-0.032,0.228,-0.0308,1.749
0.0093,-0.022,0.179,0.091,1.0515
0.015,0.012,0.072,0.1876,0.504
-0.0045,0.051,-0.024,0.4312,0.5505
-0.0264,0.052,-0.09,0.6384,0.441
-0.0234,0.017,-0.17,0.3668,0.729
-0.0165,-0.071,-0.233,0.273,0.414
0.0108,-0.008,-0.202,0.154,-0.5655
0.0273,0.019,-0.122,-0.0364,-0.276
0.0192,-0.079,-0.099,-0.4102,0.7095
-0.0009,-0.042,-0.047,-0.2492,1.101
-0.0234,-0.023,0.033,-0.1288,0.0015
-0.012,0.01,0.026,0.0196,0.189
0.0063,0.035,0.061,-0.0784,0.267
-0.0045,0.086,0.029,0.035,-0.1905
-0.009,0.056,0.045,-0.0504,-1.0215
0.0108,-0.003,0.069,-0.0266,-0.7875
-0.0081,-0.034,0.074,0.1092,-1.1835
-0.0279,-0.036,0.036,0.0588,-1.4625
-0.0267,0.042,-0.012,0.1386,-1.068
-0.0132,0.066,-0.007,0.238,0.4845
0.0075,0.007,0.026,0.1512,1.176
0.0177,-0.004,0.068,0.133,-0.042
0.0207,-0.023,0.089,0.2604,0.102
0.0348,0.018,0.036,0.3752,0.198
0.0249,0.04,0.087,0.2044,0.0285
-0.0087,-0.056,0.022,0.0112,1.3185
-0.0366,-0.067,0.051,-0.35,1.9125
-0.0243,-0.042,0.06,-0.126,0.3435
0.0216,-0.027,0.087,-0.1022,-0.4365
0.0441,0.03,-0.09,-0.4676,-0.7635
0.0303,0.054,-0.041,-0.28,-1.809
-0.015,0.042,-0.054,-0.3738,-1.782
-0.0657,0.066,-0.028,-0.3766,0.312
-0.0522,0.054,-0.027,-0.3206,-0.5385
-0.027,0.031,-0.09,-0.1442,-0.267
0.0093,0.012,0.004,0.0868,0.0825
0.0279,-0.034,0.054,0.308,0.132
0.012,-0.046,0.005,0.1134,0.5985
0.0006,-0.047,0.012,0.0798,1.107
-0.027,0.022,0.001,0.2058,0.954
-0.0273,0.004,0.045,0.238,0.5655
-0.0021,-0.004,0.032,0.2702,0.7275
0.0027,0.033,0.04,0.2324,-0.045
0.0192,0.054,-0.008,0.091,-1.2045
0.0183,0.127,-0.03,0.0378,-1.056
-0.003,0.091,0.021,0.0294,-1.4835
-0.0492,0.057,-0.034,-0.0308,-0.4275
-0.0228,0.019,0.004,-0.1022,2.109
0.0024,-0.034,0.032,-0.0014,2.082
0.021,-0.097,-0.019,-0.0728,0.927
0.0267,-0.091,0.095,0.0742,0.225
0.0036,-0.066,0.044,0.1302,-0.2625
-0.0018,-0.088,0.021,0.3696,-0.8835
-0.0006,-0.035,0.039,0.4228,-0.81
-0.0129,0.026,0.045,0.2044,-0.438
0.0024,0.042,0.025,0,0.255
0.0207,0.056,-0.001,-0.042,0.4245
0.0198,0.001,-0.029,-0.0686,1.323
-0.0045,0.023,-0.007,-0.196,0.21
-0.0117,0.067,-0.005,-0.6342,-0.8595
-0.0144,0.083,0.002,-0.4802,-0.6075
-0.0195,0.038,0.045,-0.2576,0.549
-0.0225,0.041,0.03,-0.2002,-0.546
-0.0246,0.039,0.032,0.0056,-0.387
-0.0117,0.038,0.011,0.2828,-0.5205
-0.0048,0.007,-0.004,0.336,-0.435
-0.0042,-0.012,0.031,0.2072,0.054
0.0114,-0.014,-0.045,0.203,0.2385
0.0204,-0.023,0.029,0.0966,-0.2985
0.027,0.01,0.02,0.07,0.291
0.0366,0.03,0.081,-0.0476,-0.333
0.0204,0.029,0.008,-0.168,-0.7095
0.0087,0.039,0.028,0.2954,-0.7905
-0.0078,0.048,-0.05,0.1862,-0.243
-0.009,0.067,-0.023,0.0056,-0.5655
-0.0351,-0.003,0.004,-0.0392,0.108
-0.0438,-0.076,0.002,-0.084,-1.44
-0.0075,-0.067,0.001,-0.1932,-0.6585
0.0276,-0.05,0.038,-0.0602,1.9665
0.0444,-0.085,-0.043,-0.1022,3.081
0.0417,-0.063,-0.031,-0.3472,1.929
0.0048,0,0.009,-0.1778,0.942
-0.0078,0.043,0.026,-0.1344,0.645
-0.0324,-0.045,-0.005,-0.175,0.594
-0.0489,0.079,-0.003,-0.1456,0.273
-0.0366,0.129,0.042,0.2338,-0.5565
-0.0033,0.083,0.112,0.371,-1.794
0.0057,0.091,0.027,0.3878,-1.9605
-0.0012,0.022,0.041,0.3318,-1.9245
-0.0201,0,0.065,0.1498,-0.8325
-0.0204,-0.002,-0.013,-0.0028,-0.003
0.0213,0.003,0.025,-0.07,0.369
0.003,-0.049,-0.004,0.1708,2.316
0.0093,-0.041,0.011,-0.0476,0.6795
0.0093,-0.047,0.029,-0.2562,0.5595
0.0015,0.017,0.038,-0.0126,0.435
0.0093,0.016,0.02,0.0196,0.4185
0.021,0.045,0.006,-0.1022,-0.777
-0.0147,0.044,0.018,-0.0896,-1.4925
-0.0045,0.053,-0.034,-0.1316,-1.1025
-0.0183,0.041,-0.074,0.021,-0.9675
-0.039,0.013,0.014,0.0588,0.6765
0.0018,0.018,0.114,0.0868,2.796
0.0261,-0.01,0.061,0.2576,1.089
0.0171,-0.024,0.049,0.5138,-0.003
-0.0273,-0.078,0.037,0.588,-0.354
-0.0363,-0.002,0.047,0.3892,-1.4805
0.0057,-0.053,-0.019,0.056,-0.108
0.0276,-0.05,-0.057,-0.0322,1.1985
0.024,0.022,-0.011,-0.126,0.549
0.0174,0.046,-0.006,-0.0798,-0.9915
0.0168,0.032,-0.004,-0.0042,-1.1745
0.0207,0.02,-0.029,-0.0028,-0.576
-0.0015,-0.022,-0.062,-0.1414,-0.7425
-0.0069,-0.014,0.011,-0.5264,-1.2195
-0.0051,0.05,0.001,-0.5348,-0.0105
-0.0066,0.089,0.012,-0.5152,1.2495
-0.0132,0.001,0.007,-0.4536,1.8675
0.0015,-0.012,0.052,-0.28,1.2045
0.0126,0.045,0.038,0.0406,-0.6525
0.0282,0.083,0.016,0.3584,-0.303
-0.0126,0.062,0.009,0.4242,-0.9405
-0.0198,-0.002,-0.018,0.392,-0.81
-0.0408,0.003,0.063,0.2688,0.9645
-0.072,-0.007,0.042,0.1722,0.645
0,0.023,0.106,0.0336,-0.795
0.0429,-0.025,0.102,-0.042,-0.594
0.0414,-0.128,0.068,0.1302,0.4185
0.0312,-0.119,0.004,-0.1568,0.723
-0.0021,-0.037,-0.046,-0.3192,-0.621
-0.0426,0.033,-0.075,-0.1974,-0.747
-0.0336,0.049,-0.092,-0.07,0.27
-0.033,0.063,-0.103,0.0672,-0.801
-0.0009,0.047,-0.075,-0.0182,-0.8775
0.021,0.005,-0.088,-0.0658,-0.021
0.0348,0.024,0.005,-0.2016,0.4065
0.0396,0.03,-0.026,-0.084,0.1605
0.0207,0.02,0.063,0.0182,0.843
0.0117,0.057,0.021,0.0028,1.5825
-0.0015,0.092,0.009,0.2534,1.86
-0.0201,0.066,-0.024,0.2926,1.8165
-0.0303,-0.027,0.013,0.1316,0.3045
-0.0483,-0.027,0.02,-0.0588,-2.73
-0.0318,0.024,0.083,-0.1638,-1.6215
0.0132,-0.005,0.062,0.14,-0.483
0.0192,-0.008,0.021,0.21,-0.5565
-0.0063,-0.038,0,0.1022,0.7005
-0.0021,-0.071,0.04,0.0812,-0.5295
0.0045,-0.021,-0.009,0.0616,-1.515
0.0105,0.031,-0.055,-0.0182,-0.4275
0.0219,0.066,0.005,-0.1078,-0.3165
0.033,0.099,0.052,-0.0308,0.1995
0.0144,0.037,0.022,0.1414,-1.2525
0.003,0.046,0.062,0.1428,0.249
-0.0012,0.039,-0.002,0.0406,1.4535
-0.0039,0.026,0.009,0.0826,1.6455
-0.006,-0.012,0.033,0.14,2.2275
-0.0018,-0.052,-0.016,0.2786,0.87
0.0174,-0.097,0.026,0.3752,-0.483
-0.0063,-0.061,-0.002,0.3206,-0.216
-0.0168,-0.09,0.055,0.2604,-0.141
-0.0171,-0.092,0.057,-0.0714,-1.4625
-0.0135,-0.036,0.141,-0.4844,-0.216
-0.0099,0.019,0.163,-0.5614,0.942
-0.0186,0.023,0.173,-0.1582,0.897
-0.0165,0.061,0.159,0.1484,-0.231
-0.0093,0.025,0.073,0.2072,-0.387
-0.0033,0.027,0.01,0.0714,-0.381
0.0081,0.041,-0.106,0.161,-0.6945
0.0111,0.065,-0.206,0.0364,-0.9105
0.0042,0.099,-0.189,-0.1792,-0.6825
-0.0048,0.054,-0.056,0.0126,-0.7305
-0.0072,0.013,0.03,0.3724,-0.057
0.0081,-0.035,0.06,0.4298,-0.0915
0.0147,0.033,0.041,0.0756,0.213
-0.006,0.031,0.036,0.0518,1.773
-0.0033,-0.02,0.063,0.1526,1.7895
-0.0033,0.021,0.034,-0.4662,-0.003
0.0111,0.04,0.032,-0.5992,-0.2625
0.0198,0.035,0.023,-0.1288,0.369
0.0003,0.021,0.099,0.21,0.6975
-0.0123,0.014,-0.054,0.1736,0.537
-0.0354,-0.012,-0.151,-0.007,0.063
0,-0.002,-0.2,-0.1162,1.365
0.0084,0.05,-0.092,-0.2758,0.957
0.0057,0.042,-0.052,-0.3164,-0.573
-0.0174,0.001,-0.042,-0.2254,-1.3875
-0.0033,-0.01,0.021,0.0084,-1.1355
0.003,0.001,0.034,-0.0196,-0.726
-0.0333,-0.02,-0.043,0.133,0.171
-0.006,-0.006,-0.014,0.168,0.519
0.0246,-0.006,-0.014,0.0252,-1.3005
0.0144,0.005,0.016,-0.07,-0.8805
0.0108,-0.017,0.033,-0.0532,-0.6345
0.0084,-0.073,0.05,0.0196,0.123
-0.0054,-0.06,0.052,0.0826,0.627
-0.0114,0.004,0.017,0.2576,1.3155
-0.0072,0.039,-0.001,0.2618,-0.6315
-0.0042,0.036,0.042,0.2562,-0.822
0.0213,0.028,0,0.0714,0.4905
0.0114,0.084,0.017,-0.014,0.4845
-0.0234,0.079,0.03,-0.2562,-0.4695
-0.0399,0.048,0.055,-0.2478,0.249
-0.0201,0.056,0.029,-0.0686,-1.0725
-0.0141,0.008,0.089,0.0252,-0.957
0.0174,0.006,0.088,0.1638,-1.5585
0.0309,-0.056,0.09,0.2534,-0.963
0.012,-0.08,0.043,0.3682,-0.288
0.0066,0.002,-0.011,0.1932,2.2455
0.0174,0.014,-0.013,0.0966,1.8555
0.0063,0.048,0.003,-0.2268,0.228
-0.0138,0.008,-0.089,-0.1596,-0.396
-0.0186,0.009,-0.062,-0.2282,-0.7965
-0.0165,-0.027,-0.002,-0.1414,0.195
-0.003,-0.005,-0.041,-0.2534,0.927
0.0096,0.048,0.006,-0.1428,0.372
0.0024,0.062,0.005,0.0084,0.399
-0.0072,-0.016,0.002,0.154,0.0885
-0.0081,-0.089,-0.063,0.21,0.306
-0.0003,-0.04,-0.048,0.1414,1.26
-0.0165,0.06,0.071,0.1288,0.4605
-0.0183,0.066,0.054,-0.0098,0.2355
-0.0027,0.065,0.061,-0.063,-0.8205
0.0207,0.085,0.139,0.084,-1.005
0.0195,0.031,0.164,0.301,-0.7305
0.0207,-0.009,0.173,0.3206,-0.585
-0.0003,-0.063,0.069,0.364,0.27
-0.009,-0.03,-0.04,0.4662,1.1295
-0.0159,-0.015,-0.117,0.4298,0.9645
-0.0087,0.01,-0.127,0.1162,0.1035
0.009,-0.017,-0.206,-0.1456,-0.018
0.0015,0.016,-0.119,-0.2324,0.3075
0.0069,0.008,-0.007,-0.3276,0
0.0294,-0.006,0.073,0.105,-0.045
0.0072,-0.01,0.08,0.3444,0.2415
-0.0348,0.014,0.094,0.7028,-0.2385
-0.0108,-0.022,0.047,0.7224,-0.384
-0.009,0.011,0.024,0.119,-0.3015
-0.027,0.058,-0.027,-0.672,-0.8775
-0.0186,0.073,-0.055,-0.9604,-1.2615
-0.0123,0.013,-0.027,-0.9142,-0.339
0.012,-0.064,-0.014,-0.6678,-0.054
0.0072,-0.064,-0.028,-0.3136,0.849
0.0309,-0.06,-0.055,-0.1806,0.939
0.0228,-0.001,-0.042,-0.4858,-1.1835
0.0069,0.059,0.012,-0.2506,-1.956
0.009,0.061,-0.04,0.14,-0.9555
-0.0237,0.075,-0.086,0.133,-0.3195
-0.0519,0.057,-0.134,-0.0154,2.436
-0.0588,0.043,-0.094,0.2128,2.1105
-0.0201,0.033,0.085,0.2366,0.1005
0.0171,0.034,0.081,0.1512,-0.1665
0.0393,-0.02,0.057,0.294,0.309
0.0306,-0.032,0.087,0.1344,0.441
0.0213,-0.054,0.02,-0.0364,0.3285
0.0171,-0.045,0.092,0.3234,-0.303
0.0249,0.011,0.083,0.4592,-0.048
0.0051,0.048,0.152,0.2744,0.207
-0.0123,0.094,0.116,0.0504,0.7425
-0.0276,0.022,0.142,-0.0742,-1.239
-0.0423,0.013,0.083,-0.0042,-2.0355
-0.0081,-0.009,0.057,-0.1162,-0.681
0.0063,-0.033,0.038,-0.3612,1.137
0.0111,0.007,-0.052,-0.2954,1.86
0.009,0.023,-0.084,-0.252,2.352
0.0018,-0.043,-0.171,0.0098,0.9435
0.0213,-0.004,-0.073,0.2128,-0.2895
0.0087,0.011,-0.012,0.2814,-0.672
-0.0177,0.006,0.09,0.301,-1.062
-0.0408,0.009,0.066,0.1344,-0.591
-0.0288,0.001,0.037,-0.0826,0.384
0.0138,0.052,-0.016,-0.2828,0.783
0.0438,0.063,0.002,-0.2338,0.288
0.0435,0.012,0.008,0.0224,-0.723
0.0252,-0.015,0.022,0.0238,-1.4115
-0.0216,-0.014,0.033,0.1246,-1.452
-0.0501,0.042,0.045,0.2408,-0.5745
-0.0366,0.037,0.019,0.3206,0.861
0.0117,0.002,-0.006,0.231,1.614
0.0078,-0.055,-0.021,0.2982,1.0305
-0.0165,0.014,0.02,0.2002,0.7515
-0.0195,0.024,-0.017,0.1568,0.1185
-0.0102,0.033,-0.037,0.0868,-0.5745
0.0015,-0.017,0.015,-0.1792,-1.158
-0.0138,0.016,0.081,-0.3822,-2.3445
-0.0135,0.005,0.154,-0.3724,-0.2145
-0.0195,-0.011,0.154,-0.0112,0.8025
-0.0195,0.066,0.137,0.091,-0.5565
0.0066,0.075,0.068,0.2506,0.681
0.018,-0.002,0.011,0.392,-0.0465
-0.0243,0.012,-0.066,0.5754,-0.312
-0.0108,-0.017,-0.18,0.3864,0.6285
0.0012,-0.061,-0.22,0.028,-0.843
-0.0039,-0.015,-0.193,-0.231,-0.2445
0.0252,0.02,-0.113,-0.0994,0.522
0.0024,-0.041,-0.02,-0.1456,1.542
-0.0159,0.011,0.065,-0.3066,1.0305
-0.0069,0.044,0.096,-0.1736,0.2775
0.0021,0.033,0.024,-0.2912,-0.3975
0.0135,0.087,0.04,-0.3766,-0.7245
0.0267,0.095,0.014,-0.371,-0.261
0.0078,0.085,-0.047,-0.539,0.003
0.0006,0.047,-0.036,-0.3192,-0.0285
0.0021,0.056,-0.007,0.336,-0.1725
-0.0096,-0.005,-0.026,0.5922,-0.795
-0.0285,0.006,-0.029,0.5796,-1.305
0.0054,-0.051,-0.003,0.3486,-0.297
0.0045,0.007,0.003,0.0336,1.119
0,-0.006,0.024,-0.294,0.8145
-0.0285,0.008,-0.029,-0.3472,0.459
-0.0357,0.044,-0.044,0.0434,0.5865
-0.012,0.019,-0.012,-0.1274,1.0545
0.0066,0.006,0.05,-0.0644,-0.1695
0.0204,-0.005,0.063,0.007,-0.447
0.0279,-0.007,0.058,0.1582,0.264
0.0303,-0.015,0.052,0.0588,-1.527
0.0273,-0.044,0.046,-0.1204,-1.2765
0.0243,-0.126,0.105,0.0126,-0.333
-0.0045,-0.046,0.071,0.1498,-0.888
-0.0303,-0.004,0.036,0.231,-0.006
-0.0429,0.025,0.081,0.2842,1.542
-0.0321,0.025,0.041,0.4746,3.7635
-0.0123,0.035,0.024,0.5698,1.929
-0.0234,0.063,0.068,0.5712,0.1395
-0.012,-0.016,0.114,0.5642,-0.2775
-0.0024,-0.082,0.142,0.2408,-0.684
0.0114,-0.085,0.038,-0.2324,-0.2655
0.024,-0.039,0.017,-0.553,0.2145
0.0285,-0.007,-0.064,-0.8008,0.693
-0.0054,0.072,-0.027,-0.5908,0.2715
-0.0384,0.13,-0.162,-0.5628,-0.402
-0.0555,0.069,-0.158,-0.3598,-1.7355
-0.0303,0.041,-0.064,-0.378,-2.1975
0.0168,0.005,-0.012,-0.343,-0.114
0.0312,-0.046,0.033,-0.2282,0.4155
0.0249,-0.048,0.093,0.042,0.774
0.0165,0.104,0.007,0.3472,1.2105
-0.0087,0.103,-0.046,0.4284,-0.519
-0.0408,0.088,0.011,0.4088,-0.9795
-0.0102,0.036,0.013,0.413,-0.768
0.0048,-0.056,-0.096,0.2086,-0.3705
-0.0021,-0.049,-0.196,0.1204,-0.342
-0.0045,-0.073,-0.178,0.2408,0.3765
0.0006,-0.044,0.003,0.1834,-0.027
0.0171,-0.064,0.018,0.28,0.165
0.0039,-0.049,-0.055,0.3038,0.9015
-0.0096,0.037,0.036,0.0056,0.6975
-0.0126,0.13,-0.019,-0.1918,0.357
-0.006,0.097,-0.002,-0.693,-1.6275
-0.0225,0.042,0.048,-0.6678,-1.368
-0.0075,0.026,0.034,-0.1932,0.759
0,0.044,0.075,0.056,0.1455
0.0177,0.059,0.042,0.2072,-0.444
0.0309,0.04,0.108,0.3542,-0.9645
0.0369,-0.008,0.121,0.2548,-0.297
0.0057,-0.014,0.014,-0.2044,0.528
-0.0159,0.035,0.092,-0.385,1.5915
-0.0108,0.007,0.145,-0.0686,1.2015
-0.0195,0.004,0.094,0.0266,0.183
-0.0273,0.03,0.105,0.0014,-0.5955
-0.0378,0.048,0.104,0.1414,-0.465
-0.0054,0.024,0.021,0.3444,1.8645
-0.0072,-0.014,0.007,0.3108,1.6815
0.021,0.012,-0.065,0.2772,-0.2295
0.0345,0.004,-0.109,-0.049,-1.4265
0.0015,-0.037,-0.156,0.063,-0.2445
0.0135,-0.019,-0.038,0.0756,0.0015
-0.0141,-0.01,-0.039,0.0994,-0.8805
-0.021,-0.055,0.116,0.3962,-0.6825
-0.0441,0.027,0.255,0.5278,-0.0885
-0.0342,0.124,0.211,0.3766,0.5805
-0.0153,0.1,0.188,0.0574,0.609
-0.0105,0.006,0.115,-0.0938,1.3785
-0.0048,-0.096,0.128,-0.238,0.0195
0.0447,-0.091,0.076,-0.4844,-1.431
0.0336,-0.028,-0.056,-0.5348,0.267
0.0147,0.037,-0.181,-0.4942,-0.531
0.0009,0.078,-0.309,-0.245,-0.2685
-0.0063,0.085,-0.446,-0.3094,0.078
-0.0081,0.067,-0.31,-0.0266,0.5175
-0.0234,0.087,-0.092,0.112,-0.081
-0.0225,0.022,-0.023,-0.07,-0.4905
0.0063,-0.034,0.011,-0.2604,0.612
0.0234,-0.002,-0.009,-0.1246,-0.2985
0.0186,0.022,0.022,-0.1526,-0.9315
-0.0009,0.021,0.025,-0.133,-0.411
-0.0192,0.013,0.028,-0.0476,0.0645
-0.0111,-0.007,0.06,-0.0056,-0.594
0.0105,0.012,0.016,-0.042,-0.5745
-0.0123,-0.002,-0.086,-0.1274,-0.03
-0.0306,-0.039,-0.047,0.0672,0.2835
-0.0123,-0.056,0.082,0.3374,0.552
-0.0018,-0.059,0.137,0.5096,0.7995
0.0057,0.039,0.081,0.3052,0.0945
-0.0015,0.102,0.064,0.2758,1.2525
0.0081,0.099,0.119,0.196,1.545
0.0045,0.068,0.08,0.1568,0.4905
0.0063,0.002,0.142,0.1372,-0.2895
-0.0012,-0.001,0.149,0.1568,-1.3245
-0.0207,-0.009,0.166,0.0896,-0.984
-0.0306,-0.003,0.145,-0.07,-0.7335
-0.0456,0.109,0.127,0.0532,0.012
-0.0213,0.148,0.119,0.2744,0.4575
0.0021,0.099,0.003,0.2072,0.12
-0.0006,-0.047,-0.143,0.2086,-0.141
0.0081,-0.079,-0.22,0.1442,1.098
0.0078,-0.044,-0.172,0.1232,1.116
0.0096,0.033,-0.134,0.1694,0.612
0.0012,0.026,-0.065,-0.2422,0.702
-0.0021,0.011,0.027,-0.0224,0.03
0.0048,0.02,-0.013,0.0826,-1.35
0.018,0.077,-0.044,0.0616,-1.2705
0.0123,0.054,-0.006,-0.0084,0.081
-0.0117,-0.015,0.01,-0.6538,0.363
-0.0135,-0.096,0.022,-0.8834,0.3015
-0.0192,-0.017,-0.025,-0.6006,0.087
0.003,-0.018,-0.056,-0.2982,-0.1785
0.0228,-0.04,0.011,-0.4578,0.171
-0.0081,-0.017,-0.077,-0.6734,1.281
-0.0516,-0.014,-0.007,-0.0826,1.1085
-0.0138,0.064,0.036,0.2786,-1.3935
0.0432,0.054,0.082,0.238,-2.4765
0.0339,0.049,0.092,0.4158,-3.0345
0.0045,0.068,0.063,0.294,-1.746
0.012,0.019,0.062,0.2254,0.0855
0.015,-0.026,0.11,0.133,1.992
-0.0078,-0.043,0.125,0.0294,2.847
0.0042,-0.019,0.068,0.1428,0.3465
-0.0069,-0.05,0.006,0.2072,-2.1015
-0.0303,-0.006,0.025,0.1386,-0.1485
-0.0657,0.021,0.032,0.1078,1.4145
-0.0387,-0.014,-0.022,0.0126,0.1665
-0.0045,-0.033,-0.051,0.021,-0.5955
0.009,0.028,-0.066,0.1316,0.3285
0.015,0.11,-0.104,-0.1008,0.8295
0.0249,0.094,-0.128,-0.154,0.5115
0.018,0.063,-0.105,-0.1008,1.152
0.0006,-0.012,-0.067,-0.1022,1.0815
0.018,0.014,0.007,0.0784,0.5325
0.0099,0.061,0.017,0.1176,0.318
-0.0099,0.099,-0.01,0.1764,0.0015
-0.0399,0.071,0.017,0.0966,-0.5385
-0.0381,0.075,0.066,0.0336,-0.351
-0.0153,0.066,0.052,-0.0686,-0.846
0.021,-0.044,0.099,0.0014,-0.7575
0.0366,-0.119,0.016,-0.0252,-0.3465
0.0093,-0.07,-0.002,-0.0364,-1.122
-0.0129,-0.076,-0.07,-0.0336,-1.206
0.0075,-0.053,-0.002,0.1316,-1.188
0.0078,-0.007,-0.053,0.0938,-0.897
0.0117,0.033,-0.068,0.0742,-0.069
0.0033,0.133,-0.091,0.3136,1.467
0.0093,0.092,-0.053,0.3766,2.2875
-0.0282,0.05,0.007,0.1526,1.5375
-0.0306,-0.002,0.062,-0.0448,1.347
-0.0081,0.02,0.105,-0.0518,0.012
0.003,0.007,0.129,-0.0728,-0.0495
-0.0084,0.004,0.1,-0.126,0.072
-0.0249,0.052,0.063,-0.0868,-0.681
-0.0207,0.011,0.079,0.1344,0.2385
0.0108,0.019,0.037,0.0336,0.3405
0.0249,0.009,-0.014,-0.0448,-0.4095
0.0342,-0.006,0.025,-0.1344,-1.2495
0.0273,0,0.027,-0.0378,-0.693
0.0045,0.076,0.075,-0.077,-0.243
-0.0009,0.068,0.058,-0.0168,-0.3315
-0.0303,-0.002,0.025,0.0966,0.4245
-0.0222,-0.047,0.031,0.0182,-0.6225
-0.018,-0.033,0.026,-0.2394,-1.3845
-0.0144,-0.011,0.007,-0.2758,0.1095
-0.0225,-0.057,-0.002,-0.2506,0.657
-0.0264,-0.08,-0.01,-0.0938,-0.2985
-0.0063,-0.073,-0.038,0.1932,0.837
0.0171,-0.045,-0.082,0.5334,1.461
0.0363,0.011,-0.085,0.4606,0.8115
0.0252,0.044,0.012,0.378,0.282
-0.0084,0.067,-0.019,0.203,0.75
-0.0135,0.06,0.056,0.0476,0.0075
-0.0135,0.025,0.024,-0.2702,-0.729
-0.0015,-0.021,-0.022,-0.7168,-1.3905
-0.0192,-0.026,-0.04,-0.5306,-1.797
-0.0084,0.016,-0.037,-0.133,0.2085
0.0039,0.027,0.023,-0.1442,1.5195
0.0111,0.033,0.044,-0.2492,0.558
0.0192,0.07,-0.032,-0.371,0.45
0.0159,0.078,-0.01,-0.4116,-1.548
-0.0192,0.051,0.037,-0.07,-1.641
-0.0396,0.018,0.036,0.2436,0.021
-0.0282,0.017,0.023,0.1498,1.1715
-0.0093,0.074,0.068,-0.0546,1.7535
0.0042,0.036,0.075,0.0336,0.6405
0.0126,-0.013,0.049,0.2086,-0.312
0.0315,-0.005,0.023,0.3136,0.2595
0.0177,0.033,0.094,0.4228,-0.4815
-0.0168,-0.027,0.123,0.1232,-1.077
-0.0168,-0.108,0.068,0.0336,-0.1155
0.0078,-0.048,0.12,0.1288,0.396
0.0255,-0.007,-0.016,0.2996,0.612
0.0066,0.064,0.018,0.364,1.5315
-0.015,0.108,-0.078,0.504,1.2525
-0.0405,0.095,-0.044,0.49,-0.1575
-0.051,0.076,-0.077,0.294,0.033
-0.0114,0.028,-0.036,-0.0224,-1.335
0.0075,-0.027,-0.034,-0.1834,-1.668
0.0132,0.013,-0.082,-0.651,-1.875
0.0126,0.028,-0.076,-1.183,-1.0155
0.009,0.002,0.008,-0.791,-0.6345
-0.0357,0.029,0.009,-0.2744,-0.0705
-0.0498,0.082,0.047,-0.0028,1.1775
-0.0156,0.029,0.03,0.399,1.8105
0.0087,-0.028,0.041,0.3794,0.9165
0.0198,-0.032,0.018,0.4102,0.7695
0.0294,-0.006,-0.022,0.4214,0.0795
0.0174,-0.007,-0.02,0.2408,-0.2505
0.0153,0.014,0.052,0.3262,-0.0705
0.0096,-0.034,0.04,0.2058,-0.7965
0.0102,-0.062,0.066,0.1904,-0.7245
0.0042,-0.022,-0.016,-0.007,-1.065
-0.0009,0.023,-0.01,0.0042,0.3795
0.0021,-0.027,0.02,-0.2982,1.2825
0.0057,-0.028,-0.01,-0.623,0.9585
-0.0108,-0.017,-0.002,-0.6524,-0.7395
0.0054,0.051,0.003,-0.5726,-1.5225
0.0057,0.053,0,-0.3892,0.6435
-0.0111,0.037,-0.025,-0.1792,0.8745
-0.0183,0.019,-0.037,-0.0154,1.179
-0.0231,-0.004,0.005,0.119,1.38
-0.0081,-0.002,0.015,0.2786,0.7935
-0.0027,-0.021,-0.001,0.3094,-0.2235
-0.009,-0.034,-0.016,0.3556,-1.1595
-0.0228,0.002,-0.026,0.4886,-1.431
-0.0138,0.046,0.05,0.6944,-0.195
-0.0171,0.11,0.038,0.567,1.2465
0.0021,0.087,0.046,0.3346,0.5445
0.0378,0.014,0.039,0.0056,-1.116
0.051,0.024,0.11,-0.1092,-1.095
0.0501,-0.017,0.081,-0.0658,-1.146
0.0189,0.023,-0.009,-0.0742,-0.8625
-0.018,0.019,0.1,0.2618,1.215
-0.0381,0.023,0.105,0.3094,1.548
-0.0672,0.013,0.01,0.266,0.0405
-0.0618,0.062,-0.052,-0.0126,-1.236
-0.027,0.008,-0.034,-0.5292,-1.4235
0.0126,0.063,-0.017,-0.4928,-0.756
0.0318,0.05,0.014,-0.7084,1.0605
0.0435,0.042,-0.052,-0.644,2.211
0.0345,0.005,0.008,-0.2282,1.494
0.009,-0.034,0.011,-0.007,0.9555
-0.0201,0.01,0.039,0.3038,0.7185
-0.0189,-0.045,0.006,0,-0.0525
-0.021,-0.014,0.102,-0.3654,-0.8235
-0.0309,-0.028,0.064,0.1008,-0.828
-0.0339,-0.04,0.096,0.4774,-0.6645
-0.0213,0.027,0.044,0.273,-1.191
0.0018,0.042,-0.022,0.0546,0.1905
0.0102,0.002,-0.001,0.1442,0.9225
0.0252,0.02,-0.061,0.084,0.114
0.0294,-0.007,-0.113,0.1848,-0.102
0.0414,-0.007,-0.145,-0.294,-0.567
0.0267,0.018,-0.076,-0.2856,-0.4575
-0.0114,0.043,-0.03,-0.2996,0.9795
-0.036,0.029,-0.007,-0.266,0.9495
-0.0207,0.053,0.047,-0.2576,1.383
0.0015,0.063,0.072,-0.1428,0.9045
0.0231,-0.014,0.041,-0.0294,-0.525
0.0108,-0.034,-0.031,-0.1008,-0.963
0.0033,-0.029,-0.087,-0.1876,-1.248
-0.0198,-0.035,-0.083,-0.0098,-1.1625
-0.0234,-0.017,0.005,0.203,-0.099
-0.0039,0.011,0.041,0.2618,0.7485
0.0069,0.039,0.082,0.3626,1.2345
-0.0045,0.052,0.105,0.4214,0.477
0.0042,0.012,0.104,0.1848,0.621
0.0054,-0.022,0.208,0.1302,0.2175
-0.0135,-0.031,0.109,-0.0882,-1.182
-0.0321,-0.032,0.103,0,-1.1325
-0.021,-0.039,0.132,0.1652,-1.6545
-0.003,0.019,0.075,0.1722,-1.281
-0.0159,0.067,0.039,0.1498,0.96
-0.0183,0.091,0.016,0.0952,1.905
-0.0006,0.034,-0.044,0.1386,-0.2685
0.0276,0.003,-0.134,0.2086,-1.2765
0.0195,-0.013,-0.223,0.1722,-1.437
0.0042,0.006,-0.182,0.1484,-0.0675
0.0027,0.032,-0.148,-0.021,1.7985
0.0177,0.012,-0.084,0.2534,1.041
0.0135,-0.015,-0.021,0.2002,1.3365
-0.0027,-0.005,0.056,-0.0952,-0.1515
-0.0276,0.05,0.128,-0.0504,-1.1625
-0.0345,0.082,0.084,-0.112,-0.3495
-0.0264,0.036,0.098,0.0224,-0.174
-0.003,-0.045,0.154,-0.161,-0.1125
-0.0078,-0.019,0.17,-0.0854,0.729
0.0003,-0.011,0.21,-0.0168,0.51
0.0033,-0.002,0.209,0.0672,-1.0095
-0.0087,-0.003,0.222,-0.0546,-1.08
0.009,-0.032,0.085,-0.3108,0.567
0.0255,-0.033,0.011,-0.532,1.167
0.009,-0.001,-0.172,-0.3864,1.626
0.0183,0.018,-0.328,-0.4746,0.921
0.0288,-0.022,-0.343,-0.2828,-0.33
0.0039,-0.044,-0.211,0.1036,-0.3945
-0.0363,-0.013,-0.022,0.0588,-0.519
-0.0495,0.005,0.014,0.4312,-0.7245
-0.0192,0.045,0.033,0.602,0.447
0.0117,0.08,0.102,0.3878,1.3305
0.0156,0.089,-0.009,0.028,0.597
0.003,0.028,0.025,-0.1204,-0.2055
-0.0054,0.027,0.05,-0.2842,0.15
-0.015,0.043,0.074,-0.567,0.474
-0.0027,0.048,0.065,-0.3948,-1.0875
-0.0129,0.046,0.099,0.0056,-0.591
0.0132,-0.038,0.108,0.0798,-0.5535
0.0093,-0.043,0.023,0.0798,-0.7245
-0.0195,-0.062,-0.023,0.4648,-0.12
-0.0465,-0.018,-0.074,0.4214,0.084
-0.0054,-0.034,-0.024,0.2814,-1.11
0.0117,0.024,-0.095,0.2044,-0.864
0.0015,0.069,-0.075,0.0546,-0.4545
0.0279,0.054,-0.042,-0.1764,0.69
0.0267,-0.002,0.036,0.294,0.483
0.0126,-0.044,0.052,0.3108,-1.5795
-0.0123,-0.048,0.058,0.5138,-0.204
-0.0318,-0.017,0.067,0.5488,0.4275
-0.0255,0.046,0.013,0.238,0.441
-0.0201,0.038,-0.012,0.161,2.319
-0.0003,0.011,0.072,-0.0658,0.891
0.0108,0.02,0.038,-0.3402,-0.441
0.0033,-0.011,0.014,-0.4648,0.357
-0.0057,0.013,-0.018,-0.4942,1.7055
-0.0042,0.094,0.006,-0.1568,0.9615
-0.0057,0.066,0.021,0.1526,-0.702
-0.0132,0.033,-0.001,0.3976,-2.037
-0.0126,0.011,-0.027,0.2338,-1.6095
-0.0027,0.032,-0.008,0.063,-0.2115
-0.0075,0.076,0.087,-0.0112,-0.5685
-0.0006,0.018,0.081,-0.0868,-0.033
0.0063,0.03,0.064,-0.2716,1.029
0.0114,0.031,0.116,-0.4802,2.7405
0.0222,0.007,0.057,-0.7672,1.0305
0.0234,-0.044,0.019,-0.3654,-0.462
0.0021,-0.041,-0.016,-0.1806,-0.813
-0.0201,-0.018,-0.028,-0.021,-0.618
-0.0111,-0.034,-0.213,-0.1932,0.6675
-0.0351,-0.018,-0.108,-0.1876,0.927
-0.0165,-0.048,-0.068,-0.2394,1.23
0.0039,-0.029,0.033,-0.301,0.4035
0.0204,-0.008,0.053,-0.056,-0.042
0.0261,0.014,0.087,0.1792,-0.2535
0.0324,-0.001,0.027,0.154,-1.3725
0.0192,-0.015,0.124,0.2898,-2.3835
-0.0108,0.002,0.121,0.343,-1.9005
-0.0354,0.005,0.125,0.0924,-1.4385
-0.0261,-0.008,0.164,-0.063,-0.717
-0.0123,0.006,0.164,-0.0126,1.014
-0.0198,0.103,0.115,0.0434,1.182
-0.0225,0.096,0.109,0.3458,0.0975
0.0207,0.063,0.132,0.49,0.0525
0.0453,0.073,0.057,0.5446,0.9105
0.0324,0.086,-0.109,0.5488,0.648
-0.0006,-0.036,-0.303,0.3192,-0.492
-0.0561,-0.103,-0.246,0.2016,0.897
-0.0987,-0.066,-0.116,0.105,1.149
-0.0807,0.024,-0.159,-0.1568,0.5355
-0.0132,0.066,-0.191,-0.6482,-0.3705
0.0363,0.055,-0.145,-0.672,-0.5475
0.0405,-0.03,-0.09,-0.4928,-1.008
0.0237,-0.076,-0.05,-0.2016,-0.591
0.0135,-0.13,-0.021,-0.1162,-0.2055
0.0141,-0.092,0.065,-0.2352,1.11
0.0114,-0.019,0.061,-0.1358,1.1805
-0.0015,0.05,0.067,0.0028,0.762
-0.0219,0.109,0.065,0.0476,0.228
-0.0393,0.092,0.033,0.1736,0.231
-0.0096,0.012,0.085,0.2674,0.0045
0.0321,0.026,0.06,0.2464,-1.9575
0.0192,0.068,-0.007,0.2002,-3.1605
0.018,0.046,0.114,0.2842,-0.7935
0.0309,-0.015,0.185,0.2086,-0.2085
0.0249,-0.009,0.24,0.2758,-0.402
0.0102,-0.014,0.216,0.049,0.903
-0.0147,-0.011,0.145,-0.042,1.0155
-0.015,0.032,0.165,-0.2758,0.597
-0.0165,0.004,-0.019,-0.4102,1.7865
-0.0021,-0.01,-0.235,-0.595,4.02
-0.0213,0.037,-0.335,-0.2352,2.2305
-0.0012,0.022,-0.165,-0.0056,-0.96
0.0132,-0.038,-0.063,0.1932,-3.081
-0.0156,0.007,0.043,0.2436,-1.9845
-0.0261,-0.018,0.032,0.595,-0.831
0.0048,0.05,0.136,0.5698,-0.681
-0.0069,0.032,0.164,0.721,-0.3495
-0.0108,0.068,0.139,0.5684,0.2565
0.0081,0.01,0.1,0.4872,1.2735
0.0129,-0.02,0.046,0.2002,1.536
0.0189,0.038,0.042,-0.4074,-0.1305
0.0009,0.052,0.041,-0.5432,-1.0095
-0.0204,0.051,0.029,-0.8932,-0.759
-0.012,0.067,0.038,-0.8862,-1.7595
-0.0033,0.018,0.052,-0.5502,0.801
0.0021,-0.034,0.007,-0.4564,0.6945
0.0138,-0.075,-0.051,-0.4228,-0.3465
-0.0021,-0.117,-0.024,-0.3374,0.174
-0.012,-0.092,-0.011,0.252,0.129
0.0159,-0.025,-0.008,0.6454,-0.0645
0.0141,0.045,0.029,0.7042,0.8655
-0.0063,0.122,0.056,0.5768,0.1155
-0.0294,0.053,0.034,0.6902,-1.2225
-0.0276,0.004,0.149,0.847,0.255
-0.0234,-0.017,0.142,0.7308,0.8535
0.0093,0.029,0.07,0.308,0.0825
0.0216,0.072,0.014,-0.2408,0.039
0.0135,0.044,-0.04,-0.5138,0.2955
0.0084,-0.03,-0.047,-0.7546,0.039
0.0021,-0.088,-0.058,-0.8918,-0.339
0.0048,-0.094,-0.104,-0.763,0.045
-0.0195,-0.043,-0.109,-0.4102,0.4365
-0.0222,0.029,-0.156,-0.0266,0.7665
-0.0066,0.068,-0.056,-0.1806,0.087
0.0168,0.108,-0.051,-0.1484,-1.284
0.0285,0.109,-0.023,-0.0462,-1.395
0.0081,0.059,0.055,0.14,-0.1785
-0.0216,0.003,-0.011,0.2408,0.2595
-0.0069,-0.043,0.008,0.8008,1.539
0.0057,-0.075,-0.052,1.0794,1.56
0.0036,-0.049,0.02,0.8246,0.039
-0.0126,0.017,0.071,0.476,-0.5535
-0.0543,0.007,0.024,0.1036,-0.954
-0.0477,0.01,0.005,-0.3038,-0.1965
-0.0243,0.067,0.041,-0.5572,0.0735
-0.0018,-0.045,-0.037,-0.4522,0.1515
0.0261,-0.096,-0.032,-0.4522,-0.6165
0.0408,-0.002,0.027,-0.3976,-0.5415
0.0441,0.111,0.004,-0.3822,-0.009
0.0291,0.086,-0.065,0.035,0.4215
0.0255,0.021,-0.014,0.2534,0.639
0.0366,0.05,0.011,0.2016,0.849
0.0243,0.066,0.025,0.1792,-0.198
-0.0171,0.043,0.099,0.343,-0.336
-0.0576,-0.023,0.056,0.3696,-0.261
-0.0516,-0.014,0.087,0.3752,1.2345
-0.0345,0.034,0.135,0.2282,1.653
-0.0174,0.028,0.148,-0.154,0.5925
0.0048,0.023,0.18,-0.5936,-0.6375
0.0255,0.011,0.195,-0.63,-1.6245
0.0033,0.016,0.231,-0.4494,-1.644
-0.0108,-0.043,0.053,-0.2128,-0.3105
0.0057,-0.027,-0.01,-0.2842,0.768
-0.0042,-0.011,-0.098,-0.4438,1.1625
-0.0108,0.026,-0.177,-0.1708,-0.0675
0.0096,0.067,-0.115,-0.0742,-0.8355
-0.0039,0.015,-0.058,0.1694,-0.966
-0.0174,-0.026,-0.114,0.1638,-2.7675
-0.015,-0.021,-0.167,0.3206,-1.6575
0.0006,-0.094,-0.049,0.294,-0.2955
0.0078,-0.095,-0.001,0.3864,2.4825
0.0111,-0.047,-0.002,0.2828,1.659
0.0093,0.024,0.061,0.385,-0.933
0.0093,0.056,0.007,0.4788,-1.1565
0.0174,0.057,-0.046,0.4228,-0.369
0.0132,0.049,-0.03,0.1092,0.201
0.018,0.046,0.079,0.2086,-0.1395
-0.0018,0.046,0.09,0.077,0.894
-0.0267,0.053,0.007,0.007,1.8555
-0.0423,0.053,0.021,-0.4116,2.4585
-0.0153,0.031,-0.011,-0.5992,1.6725
0.0024,-0.039,-0.032,-0.7798,1.0725
0.0225,-0.049,-0.042,-0.6202,-0.969
0.0249,-0.022,-0.054,-0.4522,-0.579
-0.0036,-0.022,0.025,-0.119,-0.1935
-0.0117,0.039,0.076,0.1764,0.636
0.0183,0.061,0.03,0.308,0.483
-0.0069,0.047,0.008,0.5152,0.6855
-0.0342,0.001,-0.045,0.427,-0.918
-0.0063,-0.054,-0.001,0.4018,-1.7565
0.0093,-0.052,-0.037,0.3136,-1.146
0.0318,-0.032,0.02,0.084,0.2595
0.0411,-0.017,0.059,0.0686,0.4125
0.0429,0.026,0.031,-0.2058,0.594
-0.0255,0.019,0.037,-0.392,0.4815
-0.0435,0.024,0.093,-0.483,-0.5265
-0.0435,0.02,0.02,-0.3612,0.396
-0.0129,0.066,0.063,-0.308,0.39
0.0132,0.089,0.071,-0.0826,0.123
-0.0069,0.072,0.081,0.2422,0.3405
-0.0105,0.001,0.069,0.2632,-1.1385
-0.0219,-0.032,0.116,0.497,-2.406
-0.033,-0.034,0.018,0.6062,-1.4355
-0.015,-0.052,-0.064,0.4284,-1.0155
0.0126,-0.035,-0.01,0.476,-0.27
0.0402,0.003,0.061,0.3108,0.663
0.0312,-0.007,0.042,0.1694,0.042
0.0183,0.019,-0.02,-0.1442,0.5445
-0.0093,0.03,0.063,-0.448,0.81
-0.0093,0.041,0.15,-0.6216,1.437
-0.0051,0.029,0.098,-0.4928,2.334
-0.0039,0.017,0.041,-0.1008,0.429
-0.0039,0.005,0.061,-0.0616,-0.72
-0.0162,0.021,-0.009,-0.0406,-0.5985
-0.0039,0.023,-0.011,0.0896,-1.035
-0.0081,0.037,-0.112,0.7322,-0.66
0.0099,-0.003,-0.188,1.0612,-0.339
-0.0024,0.064,-0.13,0.6468,1.0155
-0.0153,0,-0.031,0.6958,1.1385
0.0126,-0.035,0.112,0.6958,0.291
0.0414,-0.029,0.094,0.4284,-0.252
0.027,0.023,0.03,0.1736,-0.261
-0.0144,-0.027,-0.011,-0.4522,-0.8565
-0.0129,0.016,-0.029,-0.8876,0.0375
0.0012,0.086,-0.084,-1.3384,1.4895
0.0114,0.06,-0.087,-1.5512,0.132
-0.0162,0.034,-0.07,-1.2922,0.0255
-0.0519,-0.058,0.033,-0.7798,-1.143
-0.0471,-0.013,0.085,-0.2632,0.0855
0.0024,0.024,0.154,-0.0644,0.207
-0.0036,-0.018,0.17,0.0084,0.5655
0.0111,-0.028,0.143,0.1862,0.1785
0.0411,-0.043,0.17,0.3444,-0.546
0.0234,0.009,0.01,0.3458,-0.63
0.0042,0.049,-0.023,0.315,-1.041
-0.0108,0.088,-0.109,0.3192,-1.326
-0.0183,0.011,-0.212,0.5222,-1.0515
-0.0024,-0.029,-0.207,0.5866,1.77
0.0222,-0.067,-0.072,0.2758,2.775
0.0198,-0.07,0.031,0.1582,0.0945
0.0123,-0.047,-0.065,0.0238,-0.414
-0.0057,0.015,-0.092,0.049,-0.258
-0.036,0.045,-0.074,0.0504,0.06
-0.0369,0.016,0.009,0.1862,0.465
-0.0174,0.016,0.101,0.525,0.168
-0.0207,0.009,0.171,0.84,-0.4545
-0.0072,0.063,0.099,0.4984,-0.501
-0.0114,0.091,0.138,0.1708,0.4155
0.0213,0.072,0.03,-0.2856,-0.771
0.0258,0.028,0.071,-0.8876,-1.3485
0.0159,-0.032,-0.028,-0.833,-2.0205
-0.0048,-0.069,-0.083,-0.917,-0.5805
-0.0285,-0.038,-0.161,-0.3066,1.7085
-0.0186,-0.006,-0.137,0.1862,1.3755
0.0069,0.08,-0.045,0.427,1.509
0.0252,0.086,-0.098,0.2534,1.485
0.021,0.1,-0.096,-0.0084,0.7185
-0.0138,0.126,0.053,0.1344,1.122
-0.0213,0.099,0.172,-0.0602,1.89
-0.0015,0.015,0.144,-0.203,-0.276
0.0165,-0.005,0.159,0.042,-1.6425
0.0093,-0.089,0.039,0.1064,-1.3545
0.0084,-0.192,-0.024,0.0406,-1.014
-0.0009,-0.192,-0.048,0.1848,-0.237
-0.0192,-0.078,0.046,0.3696,-0.51
-0.0267,-0.04,0.144,0.3612,-1.5675
-0.0216,0.051,0.086,0.1778,-1.1835
-0.0042,0.061,0.079,-0.2296,0.6765
0.015,0.096,0.03,0.0182,1.7295
-0.0045,0.091,0.035,-0.0784,1.902
-0.0075,0.072,0.007,-0.3444,0.558
-0.0201,0.037,-0.063,-0.4732,-0.3585
-0.0162,-0.004,-0.063,-0.1442,-0.951
0.009,-0.01,-0.074,0.0714,-1.4325
0.0204,-0.032,-0.035,0.2786,-1.047
0.0096,-0.003,-0.098,0.2128,1.7025
0.0105,0.035,-0.078,0.5754,1.248
-0.018,0.038,0.032,0.5418,0.129
-0.027,0.039,0.036,0.8554,1.017
0.003,0.043,0.093,1.036,-0.252
0.0462,-0.01,0.074,0.5054,-0.138
0.0501,-0.027,0.117,0.2198,-0.525
0.0201,0.034,0.024,-0.2674,0.5445
-0.0174,0.002,-0.011,-1.3426,0.888
-0.0495,0.107,-0.017,-1.862,0.3
-0.0417,0.055,-0.035,-1.3482,-0.8475
-0.0252,0.019,-0.028,-1.1354,-3.072
-0.0234,0.036,-0.024,-0.7938,-3.4545
-0.0129,-0.05,0.005,-0.1666,-1.509
0.0195,-0.06,0.001,0.441,1.0065
0.0396,-0.024,0.022,0.8834,0.9705
0.0396,-0.02,0.031,1.0514,0.7725
0.0123,-0.008,0.023,0.7364,-0.036
0.0006,-0.002,0.099,0.3122,0.504
-0.0051,-0.033,0.061,-0.1218,0.042
0.0084,-0.023,0.06,0.0798,0.234
0.0102,-0.046,0.054,-0.0896,1.0515
-0.0189,-0.003,0.033,-0.1246,-0.8445
-0.027,0.108,-0.065,-0.315,0.483
-0.0195,0.145,-0.047,-0.4424,1.761
-0.0168,0.097,-0.023,-0.2226,1.6395
-0.0138,0.002,0.065,0.1428,-0.2295
-0.0072,-0.025,0.075,0.2576,0.3045
0.0114,-0.053,-0.003,0.1876,0.1665
0.0213,-0.063,-0.046,-0.007,-0.198
0.012,-0.079,0,0.0476,0.144
-0.0153,0.015,0.007,-0.1036,-1.0515
0.0054,0.023,0.012,-0.2576,-0.1185
0.0042,0.025,0.039,-0.0252,1.2375
-0.0183,0.076,0.115,0.0574,0.9225
0.0081,0.083,0.091,0.1246,0.108
0.0177,0.068,0.108,0.3206,-0.282
0.0009,0.028,0.104,0.567,-1.08
-0.0615,0.084,0.09,0.6314,-1.596
-0.0531,0.086,0.068,0.4564,-1.461
0.0126,0.019,0.049,0.0574,-0.507
0.0195,-0.033,0.045,0.0042,2.742
0.0273,-0.001,0.153,-0.1064,2.4795
0.0393,0.002,0.115,-0.1358,-0.0195
0.0249,-0.001,0.134,-0.1862,-0.5745
0.0048,-0.022,0.15,0.0098,-0.003
0.0009,-0.077,0.051,0.336,-0.7785
-0.0084,-0.016,-0.081,0.609,-0.7515
-0.0075,0.073,-0.203,0.4676,-0.4965
-0.0291,0.054,-0.385,0.154,-0.897
-0.0066,0.002,-0.367,-0.5208,-0.483
0.0099,0.016,-0.125,-0.2338,0.7605
-0.0216,0,0.045,0.0714,0.828
-0.0195,-0.085,0.09,-0.0518,-0.465
-0.0105,-0.054,0.047,0.1176,-0.69
0.0027,-0.013,0.047,0.3626,-0.42
0.0144,-0.029,0.04,0.231,-0.6525
0.003,0.007,-0.076,-0.007,-0.342
-0.0078,0.014,-0.063,-0.1498,1.1355
-0.0135,0.03,-0.172,-0.378,0.2055
-0.0246,0.021,-0.225,-0.7056,-0.822
-0.03,0.047,-0.173,-0.448,-1.902
-0.012,0.08,-0.15,-0.2954,-0.8805
0.0048,0.105,-0.009,-0.1764,0.423
0.033,0.062,0.062,-0.0322,1.119
0.0366,-0.077,0.147,-0.0322,2.064
-0.0009,-0.079,0.108,-0.343,1.5075
-0.0102,-0.058,0.071,-0.2674,0.066
-0.0024,-0.077,0.045,-0.1302,-0.555
0.0153,-0.049,0.042,-0.0854,-0.5205
0.0066,-0.092,0.067,-0.133,-0.5655
-0.0294,-0.087,0.048,-0.1078,-0.186
-0.0147,0.02,0.036,0.0924,1.779
0.0258,0.147,0.034,0.4858,1.4385
0.0036,0.206,0.054,0.756,0.4455
-0.0255,0.128,0.023,0.945,0.7335
-0.0231,0.036,0.116,0.7266,-0.6165
-0.0117,-0.07,0.177,0.3052,-1.269
-0.0228,-0.172,0.071,0.4046,0.8535
-0.0183,-0.059,0.011,0.2534,-0.096
0.0153,0.046,-0.02,-0.1134,-1.617
0.0066,0.054,0.003,-0.35,-0.708
0.0078,0.061,-0.018,-0.6468,0.894
-0.0135,0.113,-0.014,-1.6226,0.213
0.0198,0.12,-0.006,-1.1802,-0.8175
0.0417,0.054,-0.069,-0.441,-0.336
0.0237,-0.006,-0.03,0.1274,-0.177
0.0063,0.031,0.038,0.2086,0.2595
-0.0096,0.022,0.057,0.3178,0.1515
-0.0621,0.013,0.089,0.4312,0.3045
-0.0537,-0.051,0.063,0.4732,0.783
-0.0096,-0.048,0.032,-0.0728,-0.111
0.0054,-0.021,0.032,-0.14,-0.018
0.0087,-0.006,0.054,0.1722,-1.2045
-0.012,0.029,0.031,0.112,-1.3875
-0.0261,0.007,-0.075,0.0896,-0.984
-0.0093,-0.018,-0.107,0.1666,1.518
0.0228,0,-0.044,0.077,1.428
0.0081,0.056,-0.006,-0.1106,0.1425
0.0126,0.072,0.069,0.007,0.045
0.0147,0.03,0.089,0.0658,0.1125
0.0291,0.003,0.054,-0.1428,0.024
0.0081,-0.055,0.039,-0.0896,-0.9105
-0.0159,-0.051,0.012,0.2618,-1.0185
-0.0237,0.007,-0.009,0.5068,0.6435
-0.036,0.048,-0.027,0.4718,-0.4935
-0.0201,0.031,-0.002,0.189,0.351
0.0051,0.021,-0.076,-0.0476,0.4065
0.0138,0.025,-0.118,-0.1092,0.477
-0.0069,0.002,-0.063,-0.0224,0.051
0.0018,-0.024,-0.001,-0.0084,0.3045
-0.0096,-0.061,0.034,0.2128,0.3105
-0.0183,-0.01,0.092,0.4256,0.8505
-0.0219,-0.017,0.075,0.5306,0.9255
-0.0156,-0.001,0.022,0.3108,1.1595
-0.0009,0.037,0.031,0.238,-0.555
0.009,0.038,0.094,0.1148,-0.7425
0.0129,-0.014,0.034,-0.364,0.015
0.0024,-0.012,0.017,-0.6776,-0.345
0.0027,0.033,0.124,-0.9128,-0.9945
0.0132,0.06,0.139,-1.057,-1.764
0.0156,0.027,0.25,-0.6944,-1.5255
-0.0087,0.046,0.161,-0.336,1.392
-0.0519,0.065,0.162,0.0602,2.25
-0.0402,0.072,0.189,0.42,2.838
-0.0123,0.002,0.129,0.42,0.4965
0.0015,-0.048,0.06,0.4312,0.039
0.0048,-0.095,-0.081,0.329,0.207
0.0354,-0.031,-0.237,0.3976,-0.9765
0.0243,0,-0.368,0.357,-0.7575
0.0432,0.017,-0.233,-0.0686,0.7365
0,-0.002,-0.156,0.1232,-0.3945
-0.0396,0.006,-0.147,0.3584,-0.336
-0.0249,0.046,-0.153,0.6216,-0.372
-0.033,0.017,-0.195,0.3878,-0.831
0.0144,0.081,-0.169,-0.1918,-0.033
0.0249,0.093,0.03,-0.9562,-0.4215
0.0198,0.085,0.039,-0.9072,-0.9975
0.0045,0.044,0.138,-0.2758,-1.9815
-0.0192,-0.033,0.143,0.0924,-1.824
-0.03,-0.059,0.178,0.5726,-0.3495
-0.0135,-0.047,0.083,0.6272,-0.219
-0.0018,0.026,0.013,0.5978,0.5505
0.0102,0.039,-0.069,0.2058,1.005
0.0066,0.054,-0.142,0.1806,1.3635
0.0015,0.027,-0.085,0.07,0.453
0.0105,-0.034,0.047,-0.1736,-2.154
0.0099,-0.049,0.126,-0.273,-1.4445
-0.0186,-0.021,0.107,-0.3346,2.0325
-0.0339,0.036,0.143,-0.3346,2.598
-0.0294,0.068,0.128,-0.294,0.6885
0.0015,0.091,0.049,-0.4732,2.0745
0.0156,0.09,-0.007,-0.5796,1.7535
0.0093,0.033,-0.039,-0.5124,-0.909
0.0012,-0.06,-0.121,-0.6188,-1.1385
0.0054,-0.033,-0.08,-0.3808,-0.2985
-0.0084,0.002,0.004,0.2548,-0.4755
-0.0057,-0.067,0.026,0.3024,-0.9975
0.0186,-0.02,0.064,0.0154,-1.056
0.051,0.001,0.01,0.3276,-0.4335
0.0324,0.011,0.053,0.4214,0.903
-0.0249,0.058,0.067,0.4648,1.8345
-0.0753,0.078,0.099,0.294,0.558
-0.0732,-0.011,0.066,0.2436,-0.228
-0.0603,0.029,0.034,0.119,0.6465
-0.0339,0.027,0.034,-0.2646,0.6735
0.0273,-0.007,0.004,-0.3108,-0.288
0.0498,0.013,-0.003,-0.301,0.198
0.0429,0.037,0.079,0.2604,0.003
0.0246,0.063,0.063,0.1974,0.0285
0.012,-0.012,-0.005,0.2366,-0.603
-0.0057,-0.076,-0.003,0.2338,-1.9425
-0.0405,-0.002,-0.034,0.196,-1.9845
-0.0342,0.078,-0.068,0.3948,-1.422
-0.0135,0.099,0.001,0.063,0.3855
0.0042,0.064,-0.003,0.0504,1.8495
-0.0054,0.026,0.025,0.0098,2.8515
0.0027,-0.002,0.01,0.1232,0.222
0.0336,-0.015,0.097,0.595,-1.4415
0.0183,-0.065,0.056,0.5516,-1.1355
0.0063,-0.07,0.017,-0.1736,-0.81
-0.009,0.012,-0.029,-1.1788,-1.068
-0.015,0.054,-0.05,-0.9506,0.0285
-0.0186,0.096,-0.019,-0.4872,0.459
-0.0135,0.055,-0.016,-0.273,1.263
-0.0114,0.021,-0.03,0.0224,1.2465
0.0075,0.061,0.043,0.3892,0.24
-0.009,0.029,0.045,0.6426,1.125
0.0255,0.008,0.045,0.4508,0.402
0.0528,0.03,0.077,0.154,0.93
0.0078,-0.023,0.04,0,0.5835
-0.0285,0,0.043,-0.3514,-0.207
-0.0381,0.079,0.05,-0.5656,-0.777
-0.0396,0.087,0.065,-0.3976,-0.8325
-0.0183,0.043,-0.002,-0.0168,-0.5265
-0.006,-0.021,-0.02,0.2996,-0.786
-0.0099,-0.076,-0.056,0.4802,-0.0645
0.0021,-0.104,-0.094,0.5838,0.048
0.0276,-0.033,0.043,0.5306,-0.4035
-0.0102,0.02,0.075,0.3108,-0.432
0.0078,0.041,0.033,0.063,-0.624
0.0183,0.041,-0.016,0.168,-1.3575
0.0066,0.038,0.005,-0.2926,0.009
-0.0195,0.007,0.005,-0.686,0.783
-0.0267,-0.011,-0.015,-0.6972,0.5325
-0.0291,0.013,-0.066,-0.161,0.8775
0.0198,-0.05,0.007,0.5628,1.5255
0.0324,-0.025,0.043,0.8372,3.0255
0.0048,-0.011,0.016,0.6608,-0.5805
-0.0084,-0.011,-0.003,0.3388,-2.0685
-0.0384,-0.009,0.091,-0.1848,-1.0335
-0.0039,-0.015,0.131,-0.4676,-0.2625
0.0168,-0.013,0.119,-0.5362,-0.0945
0.0123,0.028,0.158,-0.3556,-0.5685
0.0165,0.064,0.082,-0.322,-0.6405
-0.0015,0.121,-0.011,-0.259,0.1095
0.0135,0.139,-0.025,-0.5544,0.216
-0.0072,0.054,0.014,-0.3444,0.42
-0.0387,-0.005,-0.023,-0.42,0.2025
-0.0141,-0.062,0.003,-0.2534,-0.9585
0.021,0.006,-0.173,0.0938,0.258
0.0261,0.047,-0.219,0.2716,0.261
0.0183,0.067,-0.132,-0.021,-1.767
-0.0054,0.025,-0.051,-0.0658,-0.108
-0.0246,0.011,-0.047,0.2254,1.1625
-0.0051,0.028,0.02,0.413,1.818
0.0033,0.076,0.067,0.8512,2.757
0.0102,0.114,0.017,0.9506,0.8325
-0.0162,0.011,-0.011,0.63,-1.0485
-0.0399,-0.048,-0.002,0.42,-1.0125
-0.0306,-0.094,0.021,0.3696,0.162
-0.0018,-0.099,0.035,0.098,0.5715
0.0114,-0.013,0.003,-0.2058,-0.75
0.0081,0,-0.024,-0.4214,-0.8715
-0.0003,-0.011,0.016,-0.553,-0.4905
0.0009,-0.033,-0.013,-0.9002,-0.3855
-0.0093,0.075,0.051,-0.826,-0.384
0.0006,0.051,0.071,-0.7112,0.5745
0.0096,0.033,0.111,-0.2492,0.498
-0.0096,0.006,0.09,0.2982,1.4415
0.006,-0.018,0.039,0.7476,0.3075
0.0024,0.002,0.019,-0.1218,0.111
-0.0111,0.002,0.028,-0.4816,-0.408
0.0036,-0.035,0.094,0.4438,-0.495
0.0342,-0.052,0.068,0.588,-0.8295
0.0156,0.029,0.081,0.5292,-1.9665
-0.0162,0.05,0.054,0.2534,-1.506
-0.0273,0.062,0.065,0.2758,-1.1145
-0.0543,0.054,0.053,0.2828,0.969
-0.0336,0.081,0.104,0.1176,2.2605
-0.0048,0,0.074,-0.0182,2.106
0.0201,0.016,0.018,0.0784,1.6245
0.0261,-0.042,-0.014,0.0182,0.9105
0.0282,-0.074,-0.036,-0.3052,0.198
0.0144,-0.044,-0.001,-0.476,-0.5415
-0.0306,-0.019,-0.065,-0.4704,-0.72
-0.0279,0.02,-0.15,-0.3822,-0.7215
0.0132,0.05,-0.133,-0.3808,-0.6465
0.0198,0.016,-0.17,-0.2884,-1.2315
0.0141,0.046,-0.095,0.154,-0.501
-0.0195,0.067,-0.001,0.3864,0.3255
-0.0237,0.011,-0.063,0.1946,-0.567
0.0033,0.013,0.084,0.3346,-2.721
0.0066,-0.005,0.182,0.4256,-0.306
-0.0294,0.091,0.246,0.4214,1.218
-0.0384,0.066,0.197,0.0322,1.071
-0.0312,-0.024,0.315,-0.0574,1.0905
-0.0009,-0.029,0.32,-0.329,1.9095
0.0147,-0.013,0.251,-0.3024,0.894
0.0267,-0.013,0.099,-0.2408,1.0065
0.0126,0.032,-0.054,-0.203,2.49
0.0186,0.029,-0.211,-0.091,1.08
0.0354,-0.011,-0.333,0.0826,-1.9935
0.0432,0.001,-0.33,0.308,-4.089
0.0273,-0.012,-0.331,0.1582,-1.5225
-0.0324,0.026,-0.154,0.0112,-0.003
-0.0663,0.006,-0.089,-0.0322,0.126
-0.0444,-0.012,-0.049,-0.2254,2.9235
-0.0246,-0.022,-0.059,-0.3388,0.9555
-0.0336,0.047,0.014,0.091,0.18
0.0195,0.059,-0.043,0.3192,-0.033
0.042,-0.001,-0.064,0.3388,-1.05
0.0309,-0.009,-0.025,0.1876,-0.696
0.0159,0.037,0.003,-0.2688,0.21
0.003,0.039,0.056,-0.8722,-0.543
-0.0198,0.051,0.102,0.1946,-0.5415
-0.0405,0.079,0.205,0.8036,0.6945
-0.0168,0.04,0.186,0.756,-0.09
0.0084,0.01,0.018,0.6272,-0.3885
-0.0015,-0.018,-0.04,0.371,-0.999
-0.0081,-0.046,-0.07,0.1246,-0.828
0.0087,-0.054,-0.021,-0.6034,0.678
0.0279,-0.062,0.014,-0.8918,0.411
0.0273,-0.07,0.045,-0.5614,0.426
0.0099,-0.012,0.016,-0.462,-0.1725
0.0003,0.047,0.01,0.2912,0.3075
-0.0207,0.128,0.062,0.6678,1.389
-0.0435,0.105,0.084,0.5642,0.7485
-0.0144,0.054,0.062,0.6986,-0.0225
-0.0141,0.032,0.066,0.287,-0.8625
-0.0123,0.027,0.028,0.0112,-0.5985
-0.0006,0,-0.006,-0.1288,0.1245
0.0195,-0.035,-0.019,-0.4074,0.516
0.0216,-0.038,0.03,-0.0336,-0.3735
-0.003,0.048,0.044,0.1512,-1.11
-0.0189,0.067,0.17,0.2702,0.0165
-0.018,0.03,0.051,0.0392,-0.1215
-0.027,-0.007,0.014,-0.0448,-1.176
-0.0063,-0.083,-0.016,-0.2492,-0.6255
0.0243,0.01,-0.013,-0.399,0.444
0.0174,0.067,-0.09,-0.6272,0.7395
0.0135,0.095,-0.059,-0.4676,0.5385
-0.0126,0.07,0.001,-0.1092,-1.1895
-0.0234,-0.005,-0.02,-0.49,0.0015
-0.0168,-0.089,-0.04,-0.4494,0.459
-0.0108,-0.099,0.009,-0.1372,-0.3195
-0.0312,-0.064,0.028,-0.1778,0.672
0.0042,0,0.04,-0.238,1.8615
0.0366,0.066,0.034,0.2282,1.1745
0.0186,0.062,0.054,0.7196,0.3675
0.0156,-0.038,0.092,0.819,0.438
-0.0177,-0.006,0.044,0.6342,0.5955
-0.0507,0.034,0,0.7378,-0.5325
-0.0147,0.023,-0.012,0.5236,-1.4145
0.0285,0.04,0.054,0.2422,-1.3335
0.0261,0.101,0.012,-0.3444,-1.1055
0.009,0.024,0.089,-0.5908,-1.0755
-0.0234,0.007,0.122,-0.714,-0.282
0.0009,-0.015,0.147,-0.7504,0.759
0.0045,0.034,0.223,-0.5236,3.0165
0.0081,-0.036,0.14,-0.322,1.5405
0.0228,0.043,0.119,-0.098,-0.7965
