ECG
-83.00
-78.00
-86.00
-72.00
-81.00
-84.00
-81.00
-81.00
-81.00
-90.00
-83.00
-86.00
-85.00
-66.00
-71.00
-65.00
-73.00
-70.00
-64.00
-68.00
-74.00
-89.00
-86.00
-81.00
-79.00
-86.00
-86.00
-79.00
-60.00
-62.00
-54.00
-45.00
-37.00
-42.00
-46.00
-32.00
-21.00
-25.00
-28.00
-36.00
-35.00
-38.00
-25.00
-27.00
-36.00
-44.00
-50.00
-54.00
-68.00
-76.00
-77.00
-73.00
-64.00
-74.00
-79.00
-82.00
-76.00
-76.00
-70.00
-86.00
-132.00
-199.00
-225.00
-182.00
-50.00
137.00
339.00
590.00
737.00
691.00
533.00
377.00
231.00
107.00
18.00
-32.00
-46.00
-49.00
-57.00
-62.00
-69.00
-69.00
-78.00
-80.00
-79.00
-82.00
-81.00
-84.00
-81.00
-78.00
-76.00
-82.00
-84.00
-82.00
-77.00
-73.00
-76.00
-77.00
-69.00
-71.00
-81.00
-85.00
-78.00
-74.00
-73.00
-62.00
-68.00
-68.00
-66.00
-66.00
-61.00
-63.00
-61.00
-52.00
-50.00
-47.00
-51.00
-36.00
-29.00
-22.00
-24.00
-25.00
-16.00
-9.00
-2.00
-1.00
11.00
14.00
23.00
27.00
32.00
33.00
32.00
34.00
32.00
23.00
23.00
15.00
3.00
-1.00
-2.00
-17.00
-22.00
-29.00
-32.00
-27.00
-34.00
-40.00
-41.00
-37.00
-38.00
-40.00
-46.00
-49.00
-51.00
-45.00
-44.00
-42.00
-42.00
-32.00
-44.00
-49.00
-47.00
-49.00
-46.00
-50.00
-52.00
-54.00
-52.00
-50.00
-48.00
-56.00
-51.00
-57.00
-61.00
-58.00
-46.00
-40.00
-42.00
-43.00
-42.00
-47.00
-51.00
-49.00
-46.00
-36.00
-34.00
-34.00
-38.00
-46.00
-42.00
-42.00
-48.00
-38.00
-39.00
-48.00
-42.00
-40.00
-37.00
-28.00
-26.00
-36.00
-38.00
-48.00
-57.00
-49.00
-41.00
-49.00
-51.00
-54.00
-48.00
-53.00
-68.00
-58.00
-60.00
-64.00
-62.00
-68.00
-66.00
-69.00
-65.00
-53.00
-53.00
-42.00
-52.00
-58.00
-54.00
-52.00
-50.00
-53.00
-46.00
-50.00
-52.00
-50.00
-50.00
-52.00
-39.00
-42.00
-36.00
-23.00
-17.00
-19.00
-22.00
-26.00
-30.00
-6.00
11.00
5.00
-5.00
-22.00
-23.00
-14.00
-6.00
-10.00
-16.00
-25.00
-38.00
-46.00
-50.00
-63.00
-60.00
-57.00
-54.00
-56.00
-70.00
-74.00
-69.00
-71.00
-76.00
-98.00
-146.00
-209.00
-233.00
-188.00
-58.00
119.00
327.00
573.00
749.00
754.00
601.00
443.00
299.00
167.00
71.00
11.00
-29.00
-44.00
-57.00
-50.00
-70.00
-77.00
-71.00
-79.00
-81.00
-86.00
-94.00
-90.00
-92.00
-90.00
-90.00
-84.00
-79.00
-79.00
-84.00
-85.00
-89.00
-85.00
-84.00
-88.00
-89.00
-88.00
-86.00
-85.00
-83.00
-84.00
-89.00
-86.00
-82.00
-77.00
-76.00
-76.00
-78.00
-78.00
-74.00
-68.00
-62.00
-53.00
-51.00
-48.00
-46.00
-22.00
-23.00
-26.00
-26.00
-13.00
3.00
6.00
10.00
13.00
22.00
27.00
35.00
36.00
40.00
35.00
35.00
30.00
23.00
6.00
6.00
-2.00
-9.00
-29.00
-25.00
-25.00
-29.00
-38.00
-31.00
-30.00
-35.00
-41.00
-44.00
-41.00
-32.00
-44.00
-45.00
-44.00
-43.00
-46.00
-48.00
-50.00
-51.00
-42.00
-38.00
-41.00
-30.00
-26.00
-26.00
-23.00
-27.00
-26.00
-29.00
-26.00
-22.00
-30.00
-32.00
-38.00
-35.00
-31.00
-26.00
-21.00
-26.00
-26.00
-30.00
-32.00
-30.00
-26.00
-26.00
-28.00
-26.00
-29.00
-26.00
-24.00
-22.00
-18.00
-17.00
-18.00
-18.00
-30.00
-25.00
-18.00
-17.00
-17.00
-20.00
-18.00
-14.00
-25.00
-21.00
-22.00
-25.00
-31.00
-27.00
-25.00
-30.00
-25.00
-24.00
-26.00
-25.00
-30.00
-30.00
-33.00
-23.00
-22.00
-21.00
-21.00
-22.00
-17.00
-17.00
-20.00
-16.00
-13.00
-2.00
-3.00
-2.00
-3.00
-3.00
-7.00
-3.00
3.00
18.00
26.00
33.00
19.00
22.00
19.00
23.00
15.00
14.00
11.00
-2.00
-9.00
-26.00
-26.00
-36.00
-36.00
-42.00
-30.00
-39.00
-32.00
-30.00
-30.00
-46.00
-56.00
-105.00
-167.00
-189.00
-154.00
-42.00
131.00
320.00
567.00
728.00
704.00
546.00
395.00
249.00
123.00
35.00
-1.00
-15.00
-14.00
-30.00
-52.00
-57.00
-67.00
-65.00
-66.00
-54.00
-58.00
-61.00
-53.00
-53.00
-58.00
-56.00
-54.00
-58.00
-55.00
-57.00
-50.00
-51.00
-50.00
-50.00
-56.00
-53.00
-60.00
-56.00
-58.00
-61.00
-59.00
-56.00
-58.00
-60.00
-54.00
-50.00
-52.00
-48.00
-41.00
-37.00
-35.00
-32.00
-32.00
-30.00
-31.00
-13.00
-7.00
-1.00
12.00
11.00
4.00
14.00
18.00
28.00
30.00
38.00
38.00
43.00
51.00
42.00
34.00
23.00
18.00
6.00
2.00
-10.00
-11.00
-16.00
-17.00
-22.00
-19.00
-21.00
-26.00
-30.00
-26.00
-24.00
-29.00
-20.00
-25.00
-22.00
-36.00
-33.00
-26.00
-29.00
-32.00
-28.00
-26.00
-13.00
-11.00
-21.00
-14.00
-13.00
-2.00
-6.00
-8.00
-13.00
-10.00
-5.00
-1.00
-1.00
-3.00
-3.00
-5.00
-14.00
-6.00
-2.00
-8.00
-2.00
-2.00
-6.00
-8.00
-7.00
-17.00
-1.00
-3.00
-1.00
-1.00
-1.00
-13.00
-11.00
-14.00
-14.00
-12.00
-12.00
-18.00
-19.00
-26.00
-22.00
-16.00
-23.00
-31.00
-38.00
-38.00
-37.00
-30.00
-18.00
-14.00
-14.00
-14.00
-12.00
-14.00
-13.00
-15.00
-16.00
-13.00
-14.00
-17.00
-17.00
-14.00
-10.00
-15.00
-22.00
-13.00
-12.00
-13.00
-18.00
-24.00
-14.00
-9.00
-3.00
-5.00
-6.00
2.00
3.00
4.00
10.00
10.00
10.00
17.00
21.00
38.00
45.00
43.00
42.00
42.00
41.00
32.00
32.00
32.00
17.00
11.00
8.00
-1.00
-1.00
-4.00
-4.00
-18.00
-24.00
-22.00
-5.00
-6.00
-12.00
-31.00
-69.00
-124.00
-157.00
-130.00
-29.00
143.00
339.00
585.00
741.00
705.00
537.00
385.00
235.00
113.00
50.00
11.00
4.00
-6.00
-12.00
-14.00
-27.00
-32.00
-32.00
-38.00
-37.00
-42.00
-37.00
-24.00
-29.00
-49.00
-42.00
-37.00
-44.00
-39.00
-41.00
-37.00
-36.00
-31.00
-35.00
-36.00
-40.00
-42.00
-42.00
-48.00
-36.00
-26.00
-24.00
-30.00
-36.00
-36.00
-30.00
-24.00
-22.00
-24.00
-14.00
-10.00
-6.00
-9.00
2.00
5.00
7.00
14.00
23.00
38.00
41.00
34.00
35.00
43.00
55.00
58.00
67.00
57.00
62.00
63.00
58.00
51.00
50.00
40.00
30.00
22.00
19.00
12.00
6.00
3.00
3.00
-5.00
-6.00
-9.00
-14.00
-12.00
-15.00
-13.00
-14.00
-10.00
-6.00
-10.00
-10.00
7.00
10.00
23.00
54.00
103.00
185.00
278.00
358.00
415.00
417.00
359.00
151.00
-171.00
-417.00
-531.00
-585.00
-603.00
-605.00
-549.00
-455.00
-337.00
-263.00
-221.00
-215.00
-223.00
-251.00
-251.00
-253.00
-232.00
-187.00
-129.00
-66.00
-30.00
-1.00
-2.00
5.00
9.00
19.00
27.00
27.00
32.00
42.00
43.00
43.00
58.00
65.00
67.00
67.00
67.00
71.00
75.00
78.00
93.00
96.00
91.00
98.00
119.00
131.00
151.00
179.00
209.00
239.00
267.00
303.00
323.00
331.00
351.00
361.00
369.00
383.00
383.00
379.00
373.00
352.00
326.00
291.00
267.00
243.00
232.00
203.00
177.00
145.00
127.00
107.00
85.00
61.00
55.00
50.00
34.00
26.00
14.00
13.00
11.00
8.00
6.00
-1.00
-1.00
2.00
6.00
-1.00
-3.00
-6.00
3.00
2.00
1.00
-2.00
-1.00
-1.00
6.00
5.00
5.00
6.00
7.00
-8.00
-9.00
-9.00
-4.00
-4.00
2.00
3.00
2.00
-6.00
-16.00
-8.00
-13.00
-12.00
-24.00
-20.00
-20.00
-16.00
-22.00
-29.00
-22.00
-25.00
-22.00
-17.00
-14.00
-17.00
-22.00
-18.00
-22.00
-20.00
-22.00
-8.00
-17.00
-26.00
-25.00
-28.00
-27.00
-35.00
-26.00
-29.00
-18.00
-17.00
-25.00
-41.00
-42.00
-48.00
-37.00
-34.00
-32.00
-37.00
-37.00
-42.00
-45.00
-42.00
-29.00
-29.00
-35.00
-39.00
-37.00
-31.00
-31.00
-29.00
-26.00
-24.00
-24.00
-28.00
-43.00
-46.00
-46.00
-44.00
-44.00
-37.00
-39.00
-40.00
-37.00
-41.00
-41.00
-34.00
-32.00
-32.00
-32.00
-18.00
-16.00
-32.00
-44.00
-56.00
-58.00
-53.00
-41.00
-34.00
-39.00
-38.00
-32.00
-28.00
-36.00
-37.00
-30.00
-29.00
-38.00
-37.00
-41.00
-46.00
-42.00
-40.00
-35.00
-35.00
-36.00
-38.00
-38.00
-39.00
-33.00
-32.00
-34.00
-33.00
-38.00
-36.00
-34.00
-30.00
-36.00
-43.00
-38.00
-42.00
-29.00
-26.00
-16.00
-22.00
-22.00
-22.00
-26.00
-34.00
-25.00
-22.00
-28.00
-30.00
-28.00
-21.00
-24.00
-30.00
-24.00
-36.00
-39.00
-34.00
-30.00
-18.00
-17.00
-21.00
-21.00
-20.00
-14.00
-7.00
-10.00
-13.00
-20.00
-26.00
-14.00
-26.00
-25.00
-30.00
-21.00
-16.00
-24.00
-22.00
-17.00
-13.00
-22.00
-14.00
-10.00
-16.00
-13.00
-1.00
-6.00
2.00
-2.00
-6.00
3.00
13.00
42.00
43.00
47.00
46.00
46.00
29.00
35.00
43.00
42.00
27.00
22.00
-1.00
-11.00
-18.00
-38.00
-37.00
-34.00
-32.00
-37.00
-40.00
-45.00
-35.00
-34.00
-45.00
-40.00
-54.00
-46.00
-60.00
-105.00
-163.00
-178.00
-142.00
-34.00
123.00
331.00
571.00
717.00
680.00
527.00
371.00
223.00
110.00
45.00
2.00
-14.00
-30.00
-42.00
-49.00
-50.00
-66.00
-69.00
-70.00
-77.00
-78.00
-77.00
-86.00
-82.00
-78.00
-85.00
-82.00
-81.00
-79.00
-88.00
-93.00
-96.00
-94.00
-84.00
-82.00
-73.00
-77.00
-78.00
-81.00
-94.00
-90.00
-85.00
-82.00
-83.00
-81.00
-67.00
-69.00
-62.00
-64.00
-53.00
-55.00
-52.00
-54.00
-50.00
-38.00
-31.00
-34.00
-42.00
-30.00
-29.00
-28.00
-27.00
-18.00
-14.00
2.00
-1.00
7.00
3.00
7.00
19.00
22.00
18.00
11.00
19.00
8.00
-1.00
-1.00
-8.00
-18.00
-13.00
-14.00
-12.00
-15.00
-16.00
-17.00
-18.00
-24.00
-24.00
-30.00
-30.00
-27.00
-31.00
-22.00
-29.00
-30.00
-40.00
-36.00
-30.00
-31.00
-17.00
-18.00
-22.00
-14.00
-20.00
-27.00
-29.00
-25.00
-29.00
-25.00
-29.00
-26.00
-21.00
-27.00
-27.00
-32.00
-29.00
-32.00
-32.00
-30.00
-38.00
-36.00
-44.00
-35.00
-34.00
-36.00
-35.00
-34.00
-36.00
-38.00
-32.00
-32.00
-38.00
-44.00
-34.00
-31.00
-29.00
-34.00
-36.00
-30.00
-32.00
-40.00
-42.00
-41.00
-36.00
-36.00
-40.00
-31.00
-39.00
-50.00
-50.00
-36.00
-30.00
-34.00
-41.00
-43.00
-34.00
-38.00
-49.00
-46.00
-43.00
-42.00
-38.00
-30.00
-29.00
-30.00
-21.00
-14.00
-15.00
-14.00
-4.00
3.00
26.00
44.00
46.00
39.00
32.00
38.00
35.00
35.00
32.00
38.00
24.00
10.00
-2.00
-16.00
-32.00
-36.00
-51.00
-56.00
-68.00
-63.00
-64.00
-64.00
-64.00
-66.00
-66.00
-69.00
-67.00
-73.00
-90.00
-124.00
-184.00
-210.00
-198.00
-103.00
59.00
243.00
473.00
671.00
703.00
579.00
413.00
267.00
151.00
61.00
6.00
-21.00
-33.00
-47.00
-62.00
-75.00
-78.00
-86.00
-84.00
-81.00
-81.00
-85.00
-86.00
-86.00
-86.00
-81.00
-79.00
-87.00
-90.00
-95.00
-96.00
-92.00
-87.00
-92.00
-86.00
-82.00
-82.00
-79.00
-85.00
-76.00
-59.00
-61.00
-63.00
-62.00
-64.00
-56.00
-53.00
-52.00
-54.00
-46.00
-54.00
-55.00
-50.00
-57.00
-50.00
-38.00
-40.00
-34.00
-33.00
-25.00
-18.00
-9.00
-4.00
3.00
5.00
7.00
8.00
11.00
12.00
10.00
-4.00
2.00
-2.00
-10.00
-14.00
-18.00
-28.00
-34.00
-41.00
-42.00
-48.00
-46.00
-53.00
-50.00
-49.00
-49.00
-50.00
-57.00
-66.00
-73.00
-53.00
-52.00
-47.00
-63.00
-64.00
-62.00
-64.00
-68.00
-72.00
-64.00
-61.00
-56.00
-49.00
-52.00
-38.00
-52.00
-64.00
-59.00
-64.00
-68.00
-66.00
-62.00
-64.00
-64.00
-66.00
-53.00
-52.00
-62.00
-71.00
-71.00
-71.00
-67.00
-62.00
-68.00
-57.00
-49.00
-54.00
-57.00
-64.00
-67.00
-61.00
-58.00
-60.00
-62.00
-55.00
-52.00
-59.00
-68.00
-68.00
-59.00
-60.00
-60.00
-64.00
-59.00
-58.00
-52.00
-49.00
-49.00
-59.00
-68.00
-69.00
-67.00
-60.00
-50.00
-57.00
-70.00
-68.00
-68.00
-64.00
-72.00
-81.00
-82.00
-77.00
-69.00
-68.00
-58.00
-49.00
-34.00
-30.00
-46.00
-45.00
-26.00
-15.00
2.00
14.00
3.00
-4.00
-5.00
3.00
7.00
14.00
-1.00
-9.00
-24.00
-40.00
-61.00
-84.00
-94.00
-106.00
-96.00
-94.00
-88.00
-95.00
-103.00
-110.00
-108.00
-112.00
-105.00
-101.00
-114.00
-115.00
-157.00
-212.00
-255.00
-241.00
-148.00
23.00
215.00
450.00
639.00
664.00
535.00
381.00
241.00
122.00
37.00
-36.00
-69.00
-88.00
-98.00
-115.00
-101.00
-109.00
-115.00
-120.00
-122.00
-126.00
-130.00
-133.00
-133.00
-132.00
-127.00
-130.00
-130.00
-131.00
-129.00
-120.00
-124.00
-125.00
-129.00
-129.00
-129.00
-117.00
-123.00
-125.00
-120.00
-124.00
-120.00
-122.00
-124.00
-120.00
-122.00
-126.00
-120.00
-111.00
-105.00
-102.00
-96.00
-102.00
-101.00
-89.00
-88.00
-82.00
-74.00
-61.00
-49.00
-46.00
-48.00
-38.00
-26.00
-22.00
-26.00
-26.00
-21.00
-32.00
-32.00
-22.00
-22.00
-34.00
-45.00
-52.00
-56.00
-64.00
-69.00
-59.00
-64.00
-63.00
-75.00
-76.00
-72.00
-74.00
-92.00
-98.00
-94.00
-88.00
-86.00
-76.00
-77.00
-73.00
-79.00
-81.00
-77.00
-80.00
-84.00
-77.00
-70.00
-66.00
-64.00
-63.00
-77.00
-78.00
-82.00
-76.00
-70.00
-68.00
-74.00
-78.00
-78.00
-86.00
-86.00
-87.00
-92.00
-94.00
-90.00
-94.00
-88.00
-88.00
-86.00
-85.00
-98.00
-90.00
-86.00
-78.00
-77.00
-95.00
-86.00
-89.00
-89.00
-86.00
-88.00
-92.00
-82.00
-82.00
-88.00
-87.00
-94.00
-84.00
-79.00
-86.00
-90.00
-87.00
-80.00
-72.00
-81.00
-90.00
-89.00
-91.00
-88.00
-85.00
-86.00
-86.00
-88.00
-86.00
-84.00
-89.00
-74.00
-66.00
-54.00
-46.00
-34.00
-38.00
-32.00
-35.00
-30.00
-14.00
-4.00
2.00
-6.00
-10.00
-14.00
-16.00
-1.00
-1.00
-9.00
-18.00
-28.00
-46.00
-56.00
-58.00
-77.00
-93.00
-90.00
-88.00
-89.00
-86.00
-90.00
-92.00
-96.00
-100.00
-98.00
-100.00
-114.00
-126.00
-182.00
-228.00
-246.00
-194.00
-69.00
103.00
321.00
553.00
677.00
607.00
457.00
315.00
193.00
91.00
20.00
-32.00
-64.00
-84.00
-96.00
-106.00
-113.00
-113.00
-111.00
-120.00
-115.00
-124.00
-129.00
-126.00
-122.00
-126.00
-118.00
-122.00
-122.00
-120.00
-124.00
-120.00
-123.00
-120.00
-127.00
-124.00
-120.00
-117.00
-115.00
-117.00
-119.00
-115.00
-104.00
-103.00
-98.00
-90.00
-112.00
-113.00
-102.00
-107.00
-102.00
-98.00
-106.00
-98.00
-94.00
-87.00
-85.00
-82.00
-76.00
-66.00
-60.00
-49.00
-49.00
-41.00
-34.00
-26.00
-21.00
-22.00
-32.00
-22.00
-18.00
-19.00
-43.00
-46.00
-46.00
-50.00
-62.00
-70.00
-66.00
-70.00
-73.00
-74.00
-70.00
-78.00
-81.00
-76.00
-76.00
-73.00
-69.00
-80.00
-76.00
-74.00
-54.00
-62.00
-60.00
-76.00
-78.00
-66.00
-68.00
-58.00
-64.00
-64.00
-77.00
-70.00
-68.00
-76.00
-86.00
-89.00
-74.00
-70.00
-61.00
-54.00
-56.00
-62.00
-52.00
-63.00
-77.00
-70.00
-70.00
-67.00
-73.00
-70.00
-62.00
-57.00
-64.00
-72.00
-68.00
-62.00
-61.00
-44.00
-54.00
-55.00
-50.00
-57.00
-62.00
-58.00
-58.00
-61.00
-60.00
-52.00
-53.00
-54.00
-55.00
-47.00
-45.00
-49.00
-66.00
-70.00
-62.00
-66.00
-60.00
-54.00
-52.00
-60.00
-72.00
-81.00
-73.00
-62.00
-63.00
-60.00
-54.00
-42.00
-31.00
-29.00
-28.00
-13.00
-16.00
-16.00
-17.00
-17.00
7.00
23.00
22.00
22.00
24.00
27.00
27.00
18.00
-2.00
-12.00
-19.00
-29.00
-32.00
-43.00
-54.00
-62.00
-56.00
-62.00
-62.00
-65.00
-69.00
-64.00
-65.00
-80.00
-101.00
-156.00
-207.00
-207.00
-130.00
6.00
195.00
426.00
643.00
712.00
616.00
488.00
355.00
213.00
111.00
38.00
-2.00
-16.00
-32.00
-52.00
-78.00
-106.00
-106.00
-102.00
-108.00
-102.00
-96.00
-101.00
-94.00
-96.00
-100.00
-96.00
-96.00
-96.00
-96.00
-94.00
-96.00
-102.00
-96.00
-90.00
-82.00
-90.00
-92.00
-88.00
-74.00
-76.00
-82.00
-85.00
-78.00
-90.00
-89.00
-70.00
-69.00
-66.00
-65.00
-65.00
-67.00
-70.00
-64.00
-79.00
-85.00
-81.00
-75.00
-67.00
-73.00
-69.00
-58.00
-43.00
-45.00
-38.00
-23.00
-18.00
-10.00
-17.00
-13.00
-14.00
-10.00
-1.00
0.00
7.00
-20.00
-54.00
-66.00
-61.00
-59.00
-54.00
-53.00
-49.00
-54.00
-54.00
-50.00
-48.00
-49.00
-47.00
-47.00
-45.00
-54.00
-41.00
-34.00
-40.00
-52.00
-59.00
-48.00
-39.00
-49.00
-46.00
-41.00
-61.00
-66.00
-64.00
-64.00
-66.00
-54.00
-53.00
-54.00
-45.00
-28.00
-30.00
-56.00
-68.00
-68.00
-64.00
-57.00
-50.00
-62.00
-58.00
-58.00
-58.00
-58.00
-45.00
-45.00
-48.00
-46.00
-51.00
-51.00
-49.00
-47.00
-51.00
-54.00
-52.00
-45.00
-50.00
-51.00
-59.00
-56.00
-50.00
-51.00
-52.00
-44.00
-43.00
-38.00
-33.00
-40.00
-43.00
-40.00
-44.00
-40.00
-44.00
-45.00
-46.00
-36.00
-30.00
-28.00
-27.00
-26.00
-26.00
-28.00
-28.00
-18.00
-4.00
7.00
6.00
4.00
11.00
3.00
11.00
11.00
11.00
2.00
-14.00
-18.00
-28.00
-42.00
-42.00
-38.00
-38.00
-41.00
-40.00
-41.00
-34.00
-47.00
-62.00
-75.00
-91.00
-142.00
-182.00
-192.00
-129.00
13.00
191.00
409.00
629.00
739.00
659.00
515.00
391.00
273.00
179.00
102.00
46.00
14.00
-5.00
-12.00
-22.00
-29.00
-42.00
-54.00
-56.00
-71.00
-74.00
-56.00
-55.00
-58.00
-60.00
-57.00
-58.00
-62.00
-64.00
-58.00
-60.00
-60.00
-62.00
-58.00
-66.00
-61.00
-73.00
-64.00
-49.00
-53.00
-64.00
-62.00
-62.00
-58.00
-42.00
-39.00
-40.00
-32.00
-42.00
-49.00
-39.00
-40.00
-36.00
-22.00
-22.00
-18.00
-18.00
-8.00
-21.00
-14.00
-2.00
6.00
10.00
11.00
16.00
34.00
46.00
40.00
35.00
22.00
23.00
22.00
15.00
14.00
4.00
3.00
-2.00
-1.00
-13.00
-24.00
-22.00
-18.00
-13.00
-9.00
-5.00
-10.00
-6.00
-17.00
-12.00
-10.00
-10.00
-10.00
-9.00
-8.00
-22.00
-14.00
-19.00
-14.00
-18.00
-25.00
-21.00
-20.00
-14.00
-11.00
-17.00
-25.00
-25.00
-20.00
-21.00
-28.00
-32.00
-31.00
-31.00
-30.00
-16.00
-18.00
-30.00
-32.00
-43.00
-37.00
-26.00
-30.00
-30.00
-22.00
-30.00
-30.00
-26.00
-29.00
-26.00
-32.00
-30.00
-24.00
-22.00
-23.00
-24.00
-29.00
-24.00
-23.00
-20.00
-29.00
-24.00
-24.00
-28.00
-27.00
-13.00
-13.00
-10.00
-26.00
-22.00
-13.00
-3.00
-10.00
-14.00
-10.00
-5.00
-1.00
-4.00
-1.00
-6.00
-5.00
-1.00
6.00
9.00
3.00
7.00
15.00
35.00
50.00
44.00
40.00
35.00
42.00
42.00
38.00
27.00
18.00
11.00
-1.00
-4.00
-9.00
-15.00
-25.00
-32.00
-30.00
-26.00
-30.00
-31.00
-28.00
-41.00
-54.00
-78.00
-135.00
-173.00
-166.00
-80.00
58.00
247.00
461.00
643.00
677.00
550.00
421.00
311.00
194.00
99.00
42.00
13.00
-2.00
-25.00
-38.00
-38.00
-46.00
-42.00
-58.00
-54.00
-58.00
-58.00
-64.00
-63.00
-68.00
-68.00
-64.00
-61.00
-60.00
-51.00
-41.00
-46.00
-64.00
-62.00
-46.00
-46.00
-50.00
-50.00
-42.00
-41.00
-27.00
-38.00
-40.00
-37.00
-36.00
-39.00
-37.00
-30.00
-24.00
-32.00
-25.00
-20.00
-18.00
-21.00
-13.00
-13.00
-14.00
-5.00
9.00
14.00
18.00
22.00
26.00
27.00
39.00
35.00
32.00
34.00
34.00
38.00
30.00
26.00
23.00
22.00
11.00
2.00
-6.00
-2.00
-8.00
-15.00
-19.00
-10.00
-17.00
-11.00
-8.00
-5.00
-13.00
-17.00
-14.00
-15.00
-10.00
-4.00
-13.00
-1.00
-10.00
-29.00
-26.00
-19.00
-10.00
-13.00
-12.00
-17.00
-18.00
-14.00
-17.00
-24.00
-28.00
-21.00
-20.00
-17.00
-13.00
-10.00
-10.00
-10.00
-9.00
-6.00
-11.00
-11.00
-21.00
-26.00
-18.00
-18.00
-13.00
-25.00
-22.00
-25.00
-17.00
-14.00
-12.00
-14.00
-14.00
-9.00
-10.00
-15.00
-24.00
-21.00
-16.00
-18.00
-20.00
-17.00
-17.00
-11.00
-14.00
-13.00
-18.00
-28.00
-18.00
-14.00
-14.00
-10.00
-9.00
-14.00
-20.00
-12.00
-15.00
-18.00
-15.00
-12.00
-8.00
-6.00
-10.00
-10.00
-5.00
-1.00
8.00
14.00
22.00
22.00
23.00
24.00
18.00
10.00
7.00
-4.00
-6.00
-13.00
-27.00
-29.00
-32.00
-31.00
-30.00
-31.00
-40.00
-42.00
-49.00
-47.00
-56.00
-68.00
-115.00
-157.00
-163.00
-102.00
27.00
184.00
379.00
595.00
691.00
597.00
433.00
299.00
177.00
70.00
3.00
-17.00
-25.00
-31.00
-38.00
-38.00
-57.00
-66.00
-69.00
-67.00
-58.00
-62.00
-62.00
-61.00
-60.00
-54.00
-58.00
-62.00
-60.00
-67.00
-72.00
-50.00
-64.00
-77.00
-71.00
-71.00
-74.00
-74.00
-73.00
-74.00
-70.00
-69.00
-72.00
-64.00
-59.00
-62.00
-67.00
-56.00
-60.00
-58.00
-61.00
-53.00
-54.00
-47.00
-40.00
-42.00
-29.00
-28.00
-21.00
-21.00
-18.00
-20.00
-17.00
-9.00
-10.00
-1.00
-1.00
-1.00
7.00
13.00
-1.00
-5.00
-5.00
-16.00
-20.00
-26.00
-29.00
-32.00
-37.00
-45.00
-45.00
-40.00
-41.00
-43.00
-46.00
-43.00
-45.00
-43.00
-42.00
-37.00
-45.00
-37.00
-34.00
-33.00
-25.00
-27.00
-35.00
-37.00
-29.00
-29.00
-28.00
-31.00
-30.00
-32.00
-29.00
-25.00
-26.00
-24.00
-23.00
-30.00
-46.00
-54.00
-48.00
-34.00
-39.00
-34.00
-41.00
-41.00
-50.00
-52.00
-53.00
-44.00
-37.00
-31.00
-29.00
-34.00
-32.00
-41.00
-38.00
-42.00
-54.00
-52.00
-49.00
-45.00
-40.00
-51.00
-43.00
-43.00
-45.00
-44.00
-45.00
-52.00
-52.00
-53.00
-49.00
-51.00
-51.00
-42.00
-26.00
-37.00
-38.00
-40.00
-38.00
-41.00
-54.00
-50.00
-46.00
-38.00
-26.00
-13.00
-14.00
-20.00
-42.00
-38.00
-22.00
-1.00
9.00
9.00
3.00
-14.00
-9.00
-12.00
-5.00
-10.00
-5.00
-13.00
-24.00
-25.00
-37.00
-42.00
-43.00
-47.00
-52.00
-57.00
-61.00
-61.00
-60.00
-61.00
-58.00
-95.00
-152.00
-191.00
-164.00
-68.00
87.00
270.00
489.00
663.00
667.00
525.00
377.00
247.00
122.00
27.00
-21.00
-43.00
-53.00
-52.00
-58.00
-57.00
-67.00
-74.00
-74.00
-82.00
-74.00
-77.00
-79.00
-87.00
-89.00
-87.00
-76.00
-79.00
-78.00
-78.00
-85.00
-84.00
-81.00
-82.00
-78.00
-76.00
-73.00
-84.00
-87.00
-85.00
-68.00
-60.00
-69.00
-66.00
-66.00
-60.00
-66.00
-61.00
-62.00
-56.00
-58.00
-58.00
-49.00
-30.00
-30.00
-26.00
-14.00
-10.00
-6.00
-1.00
7.00
13.00
14.00
18.00
14.00
22.00
24.00
20.00
23.00
13.00
10.00
7.00
-2.00
-8.00
-21.00
-25.00
-28.00
-37.00
-32.00
-34.00
-39.00
-38.00
-38.00
-38.00
-44.00
-42.00
-41.00
-40.00
-49.00
-54.00
-50.00
-52.00
-37.00
-37.00
-50.00
-49.00
-50.00
-34.00
-42.00
-50.00
-46.00
-53.00
-46.00
-36.00
-34.00
-37.00
-51.00
-44.00
-50.00
-30.00
-34.00
-50.00
-54.00
-46.00
-44.00
-37.00
-34.00
-37.00
-42.00
-42.00
-41.00
-41.00
-53.00
-53.00
-41.00
-39.00
-45.00
-49.00
-51.00
-53.00
-52.00
-54.00
-50.00
-46.00
-49.00
-45.00
-46.00
-54.00
-46.00
-45.00
-38.00
-42.00
-46.00
-42.00
-39.00
-40.00
-49.00
-46.00
-41.00
-44.00
-45.00
-37.00
-42.00
-34.00
-25.00
-12.00
-21.00
-39.00
-32.00
-22.00
-13.00
-2.00
-1.00
6.00
2.00
3.00
-1.00
-9.00
-10.00
-24.00
-40.00
-36.00
-46.00
-45.00
-46.00
-50.00
-52.00
-48.00
-54.00
-52.00
-55.00
-53.00
-62.00
-67.00
-118.00
-169.00
-179.00
-131.00
-5.00
155.00
367.00
591.00
693.00
606.00
448.00
305.00
163.00
50.00
-11.00
-38.00
-41.00
-47.00
-58.00
-71.00
-73.00
-70.00
-74.00
-70.00
-68.00
-63.00
-78.00
-71.00
-71.00
-78.00
-73.00
-75.00
-73.00
-73.00
-80.00
-78.00
-70.00
-70.00
-72.00
-76.00
-71.00
-70.00
-77.00
-64.00
-66.00
-78.00
-72.00
-65.00
-61.00
-60.00
-53.00
-46.00
-58.00
-59.00
-37.00
-34.00
-34.00
-32.00
-39.00
-21.00
-5.00
-4.00
-2.00
10.00
14.00
27.00
30.00
32.00
40.00
41.00
39.00
35.00
32.00
24.00
20.00
19.00
8.00
3.00
-1.00
12.00
3.00
-2.00
-10.00
-20.00
-14.00
-12.00
-12.00
-17.00
-13.00
-6.00
-12.00
-19.00
-18.00
-17.00
-16.00
-20.00
-32.00
-32.00
-27.00
-26.00
-31.00
-29.00
-26.00
-32.00
-28.00
-30.00
-32.00
-29.00
-30.00
-38.00
-32.00
-29.00
-30.00
-26.00
-18.00
-18.00
-22.00
-30.00
-30.00
-34.00
-26.00
-26.00
-18.00
-28.00
-41.00
-37.00
-32.00
-36.00
-31.00
-17.00
-14.00
-17.00
-17.00
-22.00
-30.00
-26.00
-16.00
-25.00
-29.00
-30.00
-25.00
-29.00
-26.00
-25.00
-24.00
-21.00
-26.00
-30.00
-22.00
-18.00
-12.00
-12.00
-20.00
-26.00
-25.00
-30.00
-30.00
-22.00
-20.00
-22.00
-19.00
-26.00
-21.00
-18.00
-18.00
-20.00
-18.00
-5.00
-1.00
-6.00
-5.00
-1.00
8.00
11.00
27.00
43.00
42.00
32.00
23.00
26.00
29.00
25.00
21.00
20.00
15.00
3.00
-6.00
-10.00
-14.00
-13.00
-17.00
-14.00
-21.00
-35.00
-34.00
-21.00
-32.00
-45.00
-104.00
-159.00
-169.00
-113.00
32.00
211.00
439.00
661.00
751.00
657.00
502.00
371.00
247.00
130.00
51.00
16.00
2.00
-5.00
-22.00
-14.00
-10.00
-21.00
-44.00
-44.00
-39.00
-51.00
-53.00
-53.00
-37.00
-38.00
-46.00
-41.00
-40.00
-46.00
-44.00
-26.00
-25.00
-34.00
-41.00
-42.00
-37.00
-18.00
-12.00
-16.00
-18.00
-15.00
-23.00
-22.00
-10.00
-12.00
-13.00
-17.00
-10.00
-13.00
-1.00
-9.00
-1.00
3.00
6.00
6.00
7.00
11.00
8.00
19.00
11.00
20.00
24.00
23.00
39.00
38.00
47.00
42.00
42.00
43.00
49.00
43.00
45.00
46.00
26.00
17.00
23.00
18.00
5.00
8.00
8.00
3.00
4.00
3.00
4.00
-1.00
3.00
3.00
-1.00
-2.00
-5.00
-1.00
-1.00
-12.00
-5.00
-5.00
-6.00
-9.00
-13.00
-5.00
-9.00
-13.00
-17.00
-8.00
-6.00
-4.00
-2.00
-8.00
-10.00
-9.00
-17.00
-26.00
-20.00
-13.00
-16.00
-9.00
-2.00
-5.00
-9.00
-10.00
-14.00
-5.00
-4.00
-10.00
-9.00
-19.00
-14.00
-12.00
-13.00
-22.00
-32.00
-22.00
-12.00
-22.00
-10.00
-22.00
-20.00
-20.00
-21.00
-20.00
-10.00
-19.00
-26.00
-34.00
-35.00
-38.00
-34.00
-30.00
-24.00
-22.00
-20.00
-28.00
-38.00
-38.00
-37.00
-37.00
-32.00
-32.00
-18.00
-14.00
-14.00
-21.00
-4.00
-10.00
-23.00
-24.00
-24.00
-22.00
-30.00
-41.00
-38.00
-22.00
-13.00
-1.00
-6.00
-4.00
-1.00
10.00
23.00
31.00
30.00
26.00
32.00
27.00
26.00
15.00
9.00
10.00
2.00
-8.00
-14.00
-13.00
-21.00
-28.00
-33.00
-40.00
-40.00
-34.00
-32.00
-37.00
-46.00
-55.00
-96.00
-154.00
-185.00
-177.00
-92.00
66.00
249.00
483.00
702.00
739.00
616.00
471.00
331.00
193.00
82.00
22.00
-2.00
-22.00
-37.00
-36.00
-38.00
-57.00
-56.00
-45.00
-44.00
-53.00
-63.00
-62.00
-61.00
-42.00
-44.00
-58.00
-55.00
-60.00
-54.00
-52.00
-42.00
-45.00
-46.00
-50.00
-50.00
-46.00
-46.00
-54.00
-39.00
-42.00
-46.00
-49.00
-46.00
-49.00
-49.00
-38.00
-36.00
-29.00
-29.00
-26.00
-18.00
-13.00
-10.00
2.00
-1.00
11.00
29.00
35.00
38.00
42.00
50.00
54.00
56.00
54.00
64.00
60.00
62.00
62.00
54.00
47.00
47.00
47.00
35.00
22.00
13.00
10.00
17.00
11.00
-3.00
-1.00
-1.00
2.00
-1.00
-4.00
6.00
3.00
2.00
-6.00
-1.00
-2.00
-12.00
-3.00
2.00
-1.00
-10.00
-3.00
2.00
-4.00
4.00
3.00
-1.00
2.00
8.00
12.00
11.00
18.00
23.00
18.00
7.00
11.00
15.00
20.00
19.00
25.00
30.00
22.00
11.00
10.00
11.00
17.00
11.00
8.00
2.00
-8.00
-2.00
17.00
23.00
23.00
22.00
19.00
8.00
15.00
19.00
20.00
8.00
3.00
-1.00
-6.00
-2.00
-4.00
6.00
19.00
14.00
2.00
12.00
18.00
15.00
5.00
7.00
6.00
6.00
6.00
14.00
27.00
29.00
31.00
24.00
-1.00
7.00
10.00
26.00
32.00
26.00
12.00
18.00
30.00
39.00
54.00
67.00
75.00
72.00
67.00
62.00
42.00
26.00
26.00
15.00
15.00
11.00
11.00
21.00
33.00
15.00
-9.00
-6.00
-13.00
-10.00
-18.00
-26.00
-42.00
-105.00
-157.00
-185.00
-153.00
-30.00
127.00
343.00
591.00
755.00
733.00
595.00
465.00
323.00
191.00
102.00
47.00
29.00
22.00
10.00
-1.00
-14.00
-17.00
-25.00
-26.00
-22.00
-22.00
-27.00
-25.00
-14.00
-22.00
-29.00
-26.00
-29.00
-26.00
-18.00
-14.00
-23.00
-25.00
-22.00
-24.00
-29.00
-26.00
-24.00
-22.00
-24.00
-23.00
-18.00
-19.00
-14.00
-9.00
-21.00
-34.00
-44.00
-34.00
-38.00
-42.00
-38.00
-18.00
-7.00
-1.00
10.00
19.00
34.00
42.00
42.00
34.00
47.00
54.00
59.00
59.00
55.00
74.00
80.00
74.00
72.00
54.00
28.00
22.00
30.00
31.00
35.00
34.00
29.00
17.00
20.00
27.00
14.00
10.00
2.00
4.00
13.00
7.00
-5.00
1.00
17.00
7.00
2.00
14.00
32.00
23.00
4.00
-12.00
-1.00
9.00
-2.00
-2.00
-5.00
-2.00
-1.00
-2.00
3.00
-1.00
6.00
11.00
-8.00
-18.00
-4.00
4.00
8.00
-1.00
-4.00
-6.00
-12.00
-7.00
-5.00
4.00
-1.00
-3.00
-1.00
-1.00
4.00
14.00
13.00
3.00
-1.00
7.00
2.00
2.00
3.00
14.00
11.00
6.00
14.00
17.00
10.00
9.00
18.00
7.00
6.00
3.00
3.00
11.00
2.00
-7.00
-9.00
-14.00
-6.00
7.00
15.00
15.00
15.00
14.00
12.00
1.00
3.00
11.00
25.00
34.00
34.00
27.00
27.00
34.00
35.00
35.00
35.00
32.00
55.00
63.00
70.00
78.00
64.00
38.00
30.00
9.00
-4.00
-14.00
-3.00
22.00
36.00
33.00
8.00
2.00
4.00
-1.00
10.00
-4.00
-26.00
-68.00
-118.00
-149.00
-125.00
-38.00
135.00
353.00
584.00
686.00
600.00
483.00
371.00
235.00
135.00
70.00
40.00
38.00
23.00
12.00
9.00
-1.00
-4.00
-6.00
-13.00
-9.00
3.00
-26.00
-42.00
-38.00
-32.00
-35.00
-32.00
-22.00
-21.00
-22.00
-29.00
-22.00
-22.00
-6.00
-10.00
-16.00
-41.00
-52.00
-40.00
-26.00
-14.00
-6.00
-1.00
-1.00
3.00
2.00
-9.00
-34.00
-20.00
-12.00
-6.00
-6.00
-5.00
-5.00
6.00
10.00
18.00
18.00
20.00
35.00
38.00
27.00
44.00
70.00
64.00
39.00
34.00
47.00
51.00
58.00
54.00
47.00
30.00
23.00
30.00
32.00
22.00
20.00
21.00
19.00
11.00
18.00
14.00
11.00
13.00
26.00
35.00
26.00
8.00
-1.00
14.00
27.00
15.00
-4.00
-5.00
6.00
8.00
13.00
15.00
17.00
14.00
22.00
31.00
34.00
10.00
-1.00
2.00
10.00
12.00
15.00
22.00
15.00
20.00
24.00
36.00
36.00
6.00
2.00
-1.00
6.00
19.00
27.00
22.00
8.00
7.00
8.00
5.00
11.00
8.00
-1.00
4.00
5.00
3.00
-2.00
10.00
16.00
15.00
-1.00
5.00
4.00
3.00
14.00
22.00
29.00
26.00
28.00
28.00
26.00
18.00
20.00
27.00
26.00
22.00
14.00
18.00
26.00
28.00
27.00
26.00
15.00
22.00
24.00
14.00
19.00
22.00
29.00
35.00
30.00
24.00
34.00
59.00
47.00
51.00
64.00
55.00
62.00
66.00
55.00
39.00
30.00
30.00
20.00
8.00
2.00
-6.00
-2.00
-1.00
2.00
-1.00
-10.00
-18.00
-18.00
-14.00
-14.00
-54.00
-117.00
-152.00
-142.00
-51.00
87.00
287.00
523.00
665.00
619.00
491.00
367.00
235.00
115.00
47.00
15.00
-5.00
-14.00
-25.00
-36.00
-34.00
-38.00
-45.00
-42.00
-46.00
-49.00
-56.00
-55.00
-52.00
-47.00
-49.00
-53.00
-51.00
-45.00
-40.00
-26.00
-42.00
-54.00
-45.00
-45.00
-57.00
-46.00
-46.00
-42.00
-52.00
-50.00
-49.00
-57.00
-52.00
-44.00
-43.00
-36.00
-32.00
-24.00
-30.00
-32.00
-35.00
-29.00
-14.00
8.00
16.00
29.00
36.00
38.00
43.00
43.00
43.00
39.00
63.00
64.00
75.00
72.00
77.00
78.00
56.00
39.00
39.00
34.00
35.00
19.00
10.00
-5.00
2.00
26.00
38.00
42.00
46.00
23.00
14.00
15.00
22.00
23.00
15.00
10.00
6.00
6.00
-1.00
1.00
7.00
10.00
6.00
6.00
11.00
21.00
22.00
14.00
23.00
7.00
-2.00
-10.00
-6.00
5.00
-9.00
-2.00
4.00
-1.00
-1.00
8.00
11.00
14.00
9.00
11.00
18.00
23.00
13.00
9.00
-1.00
2.00
2.00
10.00
4.00
2.00
2.00
-1.00
-4.00
-5.00
-10.00
-9.00
-1.00
-3.00
-6.00
-6.00
2.00
2.00
-1.00
-1.00
-10.00
-8.00
-1.00
4.00
2.00
-4.00
3.00
-1.00
6.00
4.00
6.00
2.00
2.00
-6.00
4.00
6.00
4.00
2.00
3.00
-4.00
-1.00
10.00
22.00
29.00
42.00
47.00
55.00
61.00
53.00
45.00
34.00
34.00
26.00
22.00
10.00
5.00
-2.00
-10.00
2.00
3.00
7.00
5.00
4.00
6.00
-5.00
-24.00
-46.00
-104.00
-146.00
-156.00
-91.00
32.00
216.00
429.00
639.00
705.00
593.00
454.00
326.00
179.00
74.00
25.00
-5.00
-20.00
-19.00
-21.00
-30.00
-38.00
-31.00
-28.00
-31.00
-30.00
-35.00
-26.00
-28.00
-21.00
-38.00
-30.00
-37.00
-38.00
-36.00
-25.00
-28.00
-30.00
-37.00
-37.00
-44.00
-40.00
-26.00
-22.00
-24.00
-22.00
-9.00
-10.00
-21.00
-21.00
-10.00
-8.00
-9.00
-7.00
-5.00
-5.00
-10.00
-17.00
-1.00
11.00
15.00
23.00
35.00
39.00
52.00
63.00
62.00
59.00
59.00
66.00
70.00
68.00
78.00
75.00
70.00
52.00
44.00
30.00
11.00
-1.00
6.00
6.00
9.00
10.00
14.00
4.00
-1.00
-1.00
2.00
6.00
6.00
3.00
4.00
6.00
14.00
22.00
31.00
16.00
3.00
-6.00
-3.00
-1.00
-3.00
-5.00
-2.00
3.00
8.00
6.00
-1.00
-2.00
-6.00
10.00
7.00
15.00
11.00
8.00
-2.00
8.00
14.00
19.00
17.00
14.00
17.00
27.00
24.00
16.00
11.00
4.00
10.00
7.00
7.00
11.00
13.00
14.00
11.00
11.00
6.00
3.00
11.00
18.00
22.00
22.00
16.00
12.00
13.00
15.00
8.00
-1.00
14.00
21.00
18.00
7.00
-2.00
10.00
7.00
10.00
13.00
10.00
7.00
19.00
21.00
21.00
22.00
23.00
22.00
33.00
30.00
26.00
26.00
32.00
38.00
47.00
62.00
58.00
57.00
62.00
59.00
59.00
63.00
61.00
57.00
47.00
27.00
10.00
-6.00
-12.00
3.00
12.00
11.00
-1.00
-14.00
-17.00
-9.00
-24.00
-53.00
-116.00
-151.00
-132.00
-36.00
107.00
305.00
539.00
724.00
753.00
616.00
459.00
319.00
192.00
105.00
46.00
26.00
19.00
22.00
-1.00
-5.00
-15.00
-17.00
-14.00
-18.00
-26.00
-22.00
-24.00
-32.00
-32.00
-31.00
-12.00
-20.00
-11.00
-10.00
-16.00
-13.00
-14.00
-21.00
-13.00
-17.00
-17.00
-17.00
-17.00
-17.00
-2.00
-2.00
-5.00
-5.00
-2.00
-8.00
-8.00
-1.00
-1.00
-10.00
-9.00
-13.00
-1.00
9.00
11.00
22.00
19.00
26.00
32.00
41.00
49.00
58.00
62.00
64.00
65.00
72.00
71.00
78.00
81.00
83.00
82.00
89.00
87.00
87.00
79.00
62.00
54.00
54.00
47.00
47.00
35.00
35.00
35.00
42.00
45.00
42.00
43.00
40.00
43.00
41.00
46.00
39.00
46.00
45.00
47.00
35.00
48.00
47.00
39.00
38.00
39.00
44.00
46.00
40.00
33.00
32.00
42.00
42.00
42.00
44.00
42.00
40.00
40.00
39.00
45.00
38.00
42.00
36.00
42.00
42.00
42.00
39.00
30.00
32.00
40.00
39.00
34.00
35.00
39.00
39.00
40.00
46.00
46.00
42.00
30.00
30.00
27.00
40.00
55.00
45.00
27.00
39.00
47.00
59.00
54.00
54.00
58.00
55.00
54.00
55.00
50.00
59.00
67.00
71.00
59.00
59.00
54.00
62.00
57.00
58.00
67.00
59.00
59.00
66.00
65.00
70.00
71.00
66.00
59.00
63.00
73.00
82.00
102.00
99.00
102.00
105.00
95.00
99.00
98.00
99.00
95.00
72.00
62.00
62.00
58.00
50.00
58.00
55.00
50.00
49.00
43.00
30.00
6.00
-22.00
-82.00
-121.00
-114.00
-36.00
103.00
307.00
545.00
728.00
719.00
583.00
456.00
323.00
199.00
107.00
55.00
42.00
38.00
24.00
12.00
-1.00
-6.00
-7.00
-11.00
-10.00
-11.00
-15.00
-14.00
-7.00
-13.00
-19.00
-9.00
-15.00
-12.00
-6.00
-4.00
-8.00
-12.00
-6.00
-6.00
-9.00
-6.00
-13.00
-6.00
-10.00
-8.00
-2.00
-5.00
-6.00
-14.00
-13.00
-13.00
-13.00
-1.00
9.00
6.00
4.00
6.00
11.00
14.00
15.00
14.00
24.00
19.00
30.00
42.00
43.00
43.00
50.00
51.00
62.00
58.00
59.00
63.00
59.00
51.00
46.00
38.00
38.00
37.00
32.00
30.00
23.00
18.00
19.00
15.00
15.00
11.00
6.00
11.00
14.00
19.00
10.00
14.00
18.00
18.00
15.00
15.00
19.00
15.00
19.00
13.00
19.00
12.00
10.00
14.00
10.00
10.00
8.00
6.00
6.00
-1.00
3.00
6.00
3.00
-2.00
3.00
7.00
9.00
8.00
19.00
19.00
27.00
22.00
15.00
5.00
6.00
-1.00
-1.00
10.00
18.00
8.00
18.00
21.00
26.00
13.00
6.00
3.00
12.00
11.00
14.00
21.00
19.00
18.00
18.00
19.00
15.00
22.00
26.00
24.00
18.00
14.00
10.00
14.00
16.00
18.00
26.00
15.00
4.00
11.00
15.00
17.00
15.00
27.00
38.00
35.00
29.00
22.00
35.00
47.00
55.00
56.00
58.00
61.00
63.00
59.00
50.00
43.00
32.00
23.00
17.00
23.00
16.00
11.00
13.00
13.00
7.00
5.00
-2.00
-2.00
-7.00
-10.00
-55.00
-124.00
-155.00
-129.00
-29.00
131.00
337.00
575.00
741.00
721.00
579.00
427.00
283.00
154.00
74.00
25.00
17.00
9.00
-1.00
-10.00
-18.00
-20.00
-22.00
-22.00
-32.00
-27.00
-27.00
-30.00
-35.00
-32.00
-29.00
-26.00
-25.00
-22.00
-27.00
-41.00
-36.00
-29.00
-29.00
-26.00
-30.00
-30.00
-30.00
-25.00
-32.00
-26.00
-21.00
-14.00
-13.00
-14.00
-18.00
-20.00
-20.00
-18.00
-11.00
4.00
-1.00
5.00
2.00
3.00
14.00
23.00
26.00
32.00
40.00
39.00
44.00
55.00
71.00
71.00
75.00
67.00
70.00
71.00
70.00
51.00
35.00
34.00
24.00
22.00
15.00
15.00
15.00
22.00
22.00
14.00
18.00
15.00
6.00
6.00
3.00
12.00
11.00
6.00
14.00
11.00
7.00
10.00
14.00
11.00
11.00
10.00
3.00
-5.00
-7.00
-1.00
4.00
6.00
7.00
5.00
-2.00
7.00
8.00
12.00
11.00
10.00
7.00
18.00
11.00
6.00
10.00
17.00
14.00
18.00
16.00
16.00
10.00
18.00
11.00
19.00
11.00
2.00
2.00
3.00
10.00
14.00
15.00
14.00
14.00
6.00
11.00
19.00
23.00
17.00
5.00
10.00
4.00
7.00
19.00
14.00
17.00
15.00
19.00
10.00
12.00
11.00
11.00
10.00
10.00
3.00
5.00
8.00
17.00
27.00
34.00
32.00
23.00
15.00
31.00
39.00
51.00
64.00
74.00
70.00
62.00
59.00
58.00
55.00
43.00
34.00
27.00
25.00
6.00
2.00
-5.00
-2.00
2.00
4.00
11.00
6.00
2.00
-2.00
-14.00
-60.00
-122.00
-155.00
-120.00
-13.00
143.00
361.00
599.00
756.00
726.00
579.00
440.00
311.00
191.00
111.00
55.00
35.00
24.00
7.00
-7.00
-16.00
-22.00
-28.00
-26.00
-34.00
-32.00
-30.00
-32.00
-35.00
-38.00
-41.00
-38.00
-42.00
-40.00
-40.00
-26.00
-25.00
-15.00
-14.00
-13.00
-16.00
-17.00
-22.00
-18.00
-25.00
-32.00
-34.00
-24.00
-26.00
-27.00
-26.00
-22.00
-26.00
-30.00
-30.00
-26.00
-29.00
-24.00
-18.00
-13.00
-9.00
-2.00
4.00
9.00
17.00
27.00
29.00
38.00
48.00
43.00
50.00
47.00
56.00
54.00
54.00
50.00
43.00
33.00
18.00
19.00
13.00
9.00
10.00
-1.00
-5.00
2.00
3.00
6.00
3.00
-1.00
-3.00
-6.00
-2.00
-1.00
-1.00
-6.00
-9.00
-2.00
-6.00
-12.00
-13.00
-13.00
-12.00
-6.00
-7.00
-4.00
-12.00
-9.00
-8.00
-7.00
-15.00
-22.00
-18.00
-17.00
-17.00
-13.00
-14.00
-14.00
-18.00
-18.00
-20.00
-21.00
-19.00
-20.00
-25.00
-25.00
-25.00
-29.00
-30.00
-36.00
-32.00
-24.00
-14.00
-23.00
-15.00
-21.00
-21.00
-25.00
-25.00
-21.00
-21.00
-22.00
-30.00
-30.00
-30.00
-22.00
-26.00
-25.00
-26.00
-26.00
-29.00
-26.00
-22.00
-19.00
-18.00
-24.00
-27.00
-25.00
-17.00
-13.00
-10.00
-5.00
-6.00
-1.00
-10.00
-9.00
-2.00
2.00
1.00
-1.00
-2.00
3.00
8.00
15.00
27.00
38.00
46.00
38.00
35.00
35.00
28.00
30.00
20.00
4.00
-2.00
-4.00
-1.00
-12.00
-12.00
-13.00
-12.00
-14.00
-19.00
-22.00
-28.00
-39.00
-75.00
-139.00
-163.00
-137.00
-26.00
133.00
345.00
594.00
750.00
721.00
563.00
416.00
271.00
137.00
61.00
13.00
4.00
6.00
-4.00
-24.00
-38.00
-44.00
-47.00
-38.00
-46.00
-43.00
-52.00
-60.00
-55.00
-51.00
-58.00
-54.00
-60.00
-58.00
-50.00
-43.00
-30.00
-32.00
-32.00
-36.00
-40.00
-31.00
-27.00
-28.00
-28.00
-29.00
-29.00
-28.00
-25.00
-31.00
-34.00
-32.00
-32.00
-14.00
-21.00
-12.00
-6.00
-5.00
-14.00
-6.00
3.00
8.00
18.00
19.00
20.00
22.00
34.00
44.00
54.00
59.00
59.00
55.00
62.00
58.00
59.00
51.00
53.00
46.00
29.00
25.00
20.00
12.00
10.00
10.00
11.00
6.00
-2.00
-1.00
2.00
7.00
10.00
9.00
11.00
10.00
18.00
14.00
7.00
4.00
-1.00
-1.00
13.00
15.00
12.00
13.00
11.00
10.00
10.00
10.00
6.00
10.00
14.00
8.00
4.00
-1.00
-1.00
-1.00
-1.00
-1.00
-3.00
-4.00
-6.00
1.00
10.00
7.00
6.00
6.00
6.00
-2.00
7.00
5.00
6.00
2.00
4.00
4.00
4.00
4.00
6.00
14.00
10.00
7.00
4.00
-6.00
-2.00
-6.00
-2.00
-13.00
-2.00
-4.00
-1.00
-1.00
-1.00
-6.00
-1.00
11.00
7.00
8.00
6.00
12.00
9.00
8.00
3.00
2.00
4.00
10.00
2.00
3.00
3.00
10.00
8.00
7.00
5.00
3.00
15.00
27.00
42.00
39.00
51.00
46.00
51.00
45.00
42.00
30.00
29.00
22.00
15.00
8.00
-2.00
-8.00
-6.00
-13.00
-8.00
-9.00
-1.00
3.00
3.00
-9.00
-36.00
-82.00
-137.00
-158.00
-122.00
-10.00
179.00
389.00
623.00
761.00
691.00
541.00
394.00
263.00
147.00
74.00
23.00
18.00
-1.00
-10.00
-18.00
-29.00
-25.00
-32.00
-40.00
-36.00
-37.00
-41.00
-40.00
-41.00
-39.00
-36.00
-49.00
-38.00
-37.00
-40.00
-40.00
-30.00
-34.00
-43.00
-34.00
-38.00
-26.00
-36.00
-34.00
-49.00
-32.00
-40.00
-45.00
-36.00
-34.00
-30.00
-21.00
-25.00
-14.00
-22.00
-15.00
-13.00
-13.00
-1.00
11.00
10.00
14.00
20.00
25.00
32.00
38.00
26.00
34.00
35.00
50.00
49.00
56.00
58.00
57.00
60.00
54.00
42.00
35.00
30.00
22.00
19.00
14.00
6.00
10.00
3.00
3.00
-1.00
-1.00
-2.00
-8.00
1.00
2.00
-5.00
-10.00
-4.00
-9.00
-2.00
-1.00
6.00
2.00
0.00
-2.00
-10.00
-13.00
-10.00
-8.00
-3.00
-6.00
-13.00
-14.00
-10.00
-2.00
-2.00
-10.00
-10.00
-10.00
0.00
5.00
-1.00
-2.00
-2.00
-7.00
2.00
3.00
-1.00
-6.00
2.00
-1.00
-2.00
-5.00
-2.00
-5.00
-9.00
-5.00
-9.00
-6.00
-6.00
-2.00
-4.00
-13.00
-13.00
-14.00
-17.00
-9.00
-10.00
-8.00
-6.00
-2.00
3.00
-10.00
-6.00
-1.00
-3.00
-10.00
-5.00
-1.00
2.00
-1.00
6.00
-1.00
1.00
-3.00
-5.00
-4.00
1.00
18.00
15.00
12.00
9.00
8.00
14.00
21.00
21.00
41.00
47.00
42.00
43.00
43.00
39.00
32.00
19.00
15.00
4.00
-3.00
-8.00
-6.00
-2.00
-7.00
-10.00
-15.00
-9.00
-15.00
-17.00
-27.00
-78.00
-136.00
-167.00
-134.00
-29.00
131.00
343.00
587.00
745.00
709.00
559.00
407.00
267.00
135.00
54.00
10.00
-1.00
-11.00
-15.00
-23.00
-31.00
-37.00
-42.00
-45.00
-45.00
-53.00
-53.00
-48.00
-42.00
-49.00
-43.00
-53.00
-50.00
-49.00
-53.00
-50.00
-52.00
-41.00
-50.00
-46.00
-49.00
-49.00
-46.00
-46.00
-53.00
-53.00
-47.00
-49.00
-49.00
-45.00
-46.00
-40.00
-40.00
-40.00
-36.00
-34.00
-32.00
-29.00
-29.00
-25.00
-18.00
-6.00
-4.00
3.00
14.00
14.00
19.00
23.00
27.00
29.00
32.00
37.00
47.00
42.00
35.00
32.00
32.00
22.00
18.00
7.00
7.00
3.00
-4.00
-6.00
-1.00
-9.00
-10.00
-13.00
-10.00
-9.00
-13.00
-10.00
-10.00
-19.00
-13.00
-6.00
-3.00
-13.00
-14.00
-6.00
-6.00
-11.00
-7.00
-13.00
-17.00
-10.00
-10.00
-16.00
-10.00
-14.00
-17.00
-13.00
-12.00
-18.00
-12.00
-10.00
-10.00
-10.00
-9.00
-2.00
-4.00
-6.00
-2.00
-10.00
-6.00
-9.00
-4.00
-8.00
-2.00
-5.00
-2.00
-4.00
-14.00
-4.00
-1.00
2.00
-1.00
-10.00
-5.00
-1.00
-1.00
-1.00
-6.00
-4.00
-4.00
-2.00
-2.00
4.00
3.00
3.00
6.00
-1.00
-2.00
2.00
3.00
6.00
9.00
13.00
10.00
10.00
10.00
18.00
14.00
24.00
26.00
30.00
30.00
30.00
24.00
30.00
28.00
43.00
52.00
65.00
62.00
59.00
59.00
58.00
50.00
42.00
39.00
35.00
19.00
14.00
6.00
7.00
8.00
10.00
11.00
7.00
7.00
-2.00
-20.00
-63.00
-118.00
-137.00
-91.00
26.00
203.00
421.00
646.00
765.00
686.00
523.00
385.00
257.00
154.00
82.00
42.00
22.00
6.00
-3.00
-8.00
-18.00
-18.00
-28.00
-25.00
-29.00
-40.00
-32.00
-34.00
-35.00
-34.00
-36.00
-37.00
-37.00
-30.00
-26.00
-20.00
-26.00
-30.00
-32.00
-33.00
-32.00
-32.00
-45.00
-38.00
-36.00
-29.00
-31.00
-22.00
-26.00
-26.00
-26.00
-21.00
-13.00
-20.00
-19.00
-19.00
-15.00
-13.00
-1.00
7.00
14.00
15.00
18.00
22.00
30.00
32.00
43.00
45.00
55.00
57.00
62.00
66.00
66.00
62.00
50.00
41.00
39.00
38.00
35.00
31.00
21.00
14.00
11.00
11.00
-1.00
3.00
-2.00
-1.00
3.00
3.00
7.00
7.00
11.00
11.00
-1.00
-2.00
-1.00
-6.00
-1.00
2.00
3.00
-10.00
-6.00
-8.00
2.00
2.00
0.00
2.00
2.00
-1.00
3.00
-4.00
-2.00
4.00
-1.00
-2.00
-2.00
-6.00
7.00
10.00
-1.00
-4.00
-3.00
2.00
-1.00
-1.00
-4.00
-4.00
2.00
-4.00
-4.00
-1.00
8.00
6.00
2.00
-1.00
3.00
-2.00
6.00
6.00
4.00
-1.00
-1.00
-1.00
-3.00
-5.00
-5.00
6.00
6.00
5.00
3.00
-1.00
6.00
3.00
-1.00
-1.00
6.00
7.00
3.00
3.00
2.00
3.00
3.00
-2.00
3.00
4.00
11.00
14.00
8.00
14.00
10.00
22.00
35.00
50.00
46.00
51.00
50.00
50.00
40.00
40.00
32.00
19.00
16.00
7.00
-2.00
-2.00
-5.00
-5.00
-9.00
-5.00
-2.00
-5.00
-13.00
-21.00
-46.00
-96.00
-146.00
-153.00
-90.00
32.00
217.00
439.00
655.00
745.00
648.00
495.00
358.00
235.00
139.00
70.00
30.00
8.00
-1.00
-15.00
-30.00
-21.00
-29.00
-32.00
-39.00
-30.00
-38.00
-38.00
-34.00
-29.00
-30.00
-41.00
-33.00
-38.00
-38.00
-38.00
-38.00
-34.00
-35.00
-36.00
-41.00
-44.00
-32.00
-27.00
-24.00
-18.00
-21.00
-21.00
-21.00
-20.00
-15.00
-13.00
-12.00
-10.00
-8.00
-7.00
-6.00
-6.00
-9.00
-2.00
-1.00
9.00
7.00
14.00
20.00
22.00
22.00
30.00
39.00
42.00
47.00
47.00
49.00
53.00
47.00
42.00
38.00
29.00
19.00
14.00
14.00
2.00
2.00
-1.00
-1.00
-10.00
-8.00
-4.00
-1.00
-1.00
-1.00
-1.00
-1.00
2.00
-7.00
-5.00
-6.00
-11.00
-17.00
-14.00
-13.00
-11.00
-17.00
-7.00
-13.00
-6.00
-9.00
-6.00
-9.00
-6.00
-13.00
-21.00
-15.00
-9.00
-19.00
-17.00
-14.00
-21.00
-15.00
-21.00
-26.00
-25.00
-25.00
-25.00
-25.00
-22.00
-17.00
-18.00
-21.00
-14.00
-21.00
-14.00
-13.00
-14.00
-21.00
-19.00
-17.00
-13.00
-17.00
-18.00
-26.00
-28.00
-21.00
-20.00
-25.00
-25.00
-26.00
-22.00
-23.00
-29.00
-24.00
-19.00
-14.00
-18.00
-24.00
-22.00
-17.00
-21.00
-24.00
-22.00
-18.00
-17.00
-17.00
-18.00
-8.00
-2.00
-1.00
-12.00
-16.00
-10.00
-1.00
6.00
13.00
23.00
24.00
27.00
34.00
30.00
29.00
23.00
14.00
-2.00
-9.00
-26.00
-31.00
-18.00
-21.00
-15.00
-13.00
-22.00
-22.00
-22.00
-29.00
-54.00
-89.00
-147.00
-168.00
-131.00
-13.00
139.00
337.00
568.00
719.00
683.00
536.00
389.00
257.00
127.00
52.00
13.00
-1.00
-12.00
-17.00
-24.00
-35.00
-44.00
-49.00
-47.00
-50.00
-50.00
-53.00
-57.00
-54.00
-56.00
-53.00
-52.00
-56.00
-54.00
-54.00
-45.00
-46.00
-44.00
-46.00
-50.00
-50.00
-48.00
-46.00
-44.00
-44.00
-46.00
-42.00
-44.00
-38.00
-38.00
-41.00
-40.00
-32.00
-32.00
-36.00
-30.00
-32.00
-26.00
-24.00
-21.00
-10.00
-6.00
-6.00
-4.00
8.00
11.00
18.00
24.00
30.00
30.00
32.00
42.00
57.00
50.00
51.00
51.00
49.00
50.00
38.00
26.00
25.00
16.00
14.00
11.00
10.00
10.00
3.00
4.00
4.00
3.00
-6.00
3.00
-2.00
2.00
2.00
3.00
6.00
-1.00
1.00
2.00
4.00
2.00
-1.00
2.00
-1.00
-1.00
-1.00
-1.00
-1.00
7.00
10.00
-1.00
-1.00
3.00
2.00
7.00
-5.00
-4.00
5.00
11.00
7.00
10.00
8.00
4.00
6.00
6.00
9.00
-1.00
3.00
6.00
15.00
8.00
2.00
-4.00
2.00
6.00
6.00
5.00
2.00
2.00
2.00
-2.00
-1.00
-1.00
3.00
-1.00
-6.00
-6.00
-5.00
-2.00
-5.00
-4.00
-2.00
-1.00
3.00
15.00
4.00
-3.00
-1.00
-5.00
1.00
-1.00
-4.00
2.00
-1.00
-1.00
1.00
5.00
11.00
15.00
30.00
33.00
29.00
26.00
17.00
26.00
34.00
51.00
54.00
53.00
46.00
42.00
47.00
44.00
43.00
27.00
25.00
22.00
11.00
3.00
-1.00
-11.00
-5.00
-7.00
-13.00
-22.00
-18.00
-23.00
-26.00
-77.00
-132.00
-157.00
-124.00
-20.00
143.00
362.00
599.00
764.00
755.00
590.00
431.00
297.00
187.00
104.00
43.00
23.00
8.00
-6.00
-22.00
-34.00
-45.00
-44.00
-42.00
-42.00
-46.00
-53.00
-54.00
-58.00
-54.00
-55.00
-49.00
-49.00
-44.00
-36.00
-38.00
-33.00
-30.00
-46.00
-38.00
-36.00
-48.00
-49.00
-52.00
-52.00
-38.00
-40.00
-32.00
-31.00
-30.00
-34.00
-26.00
-23.00
-26.00
-29.00
-21.00
-14.00
-10.00
-6.00
3.00
3.00
7.00
18.00
15.00
23.00
27.00
17.00
29.00
34.00
41.00
38.00
43.00
50.00
51.00
44.00
39.00
34.00
29.00
19.00
22.00
15.00
15.00
11.00
6.00
-2.00
5.00
4.00
3.00
3.00
-1.00
2.00
6.00
6.00
3.00
-1.00
-4.00
2.00
-1.00
-9.00
-2.00
-4.00
-4.00
-2.00
-8.00
-6.00
-6.00
-9.00
-6.00
-2.00
-8.00
-10.00
-2.00
2.00
-6.00
-5.00
-6.00
-6.00
-5.00
-6.00
-4.00
-6.00
-1.00
2.00
-1.00
-1.00
1.00
15.00
6.00
15.00
22.00
15.00
3.00
5.00
13.00
12.00
7.00
10.00
18.00
23.00
31.00
23.00
32.00
42.00
40.00
26.00
22.00
23.00
20.00
19.00
22.00
19.00
18.00
19.00
17.00
25.00
32.00
27.00
35.00
32.00
26.00
23.00
25.00
26.00
22.00
26.00
26.00
34.00
54.00
54.00
59.00
59.00
58.00
52.00
48.00
62.00
55.00
73.00
78.00
72.00
78.00
83.00
79.00
70.00
59.00
58.00
42.00
34.00
21.00
16.00
19.00
14.00
10.00
6.00
17.00
18.00
15.00
10.00
-25.00
-73.00
-120.00
-117.00
-34.00
122.00
303.00
523.00
729.00
789.00
669.00
502.00
366.00
243.00
150.00
91.00
58.00
35.00
16.00
-1.00
-10.00
-8.00
-10.00
-17.00
-21.00
-8.00
-13.00
-14.00
-13.00
-10.00
-10.00
-10.00
-20.00
-17.00
-18.00
-24.00
-26.00
-25.00
-21.00
-10.00
-9.00
-15.00
-14.00
-14.00
-14.00
-17.00
-12.00
-10.00
-13.00
-9.00
-5.00
-5.00
-1.00
-4.00
-1.00
7.00
4.00
2.00
10.00
7.00
-1.00
6.00
6.00
11.00
21.00
29.00
28.00
33.00
35.00
42.00
51.00
59.00
58.00
58.00
50.00
50.00
43.00
41.00
34.00
21.00
17.00
7.00
10.00
15.00
7.00
10.00
10.00
8.00
6.00
6.00
6.00
6.00
3.00
-2.00
2.00
-4.00
-6.00
-7.00
-4.00
-10.00
-10.00
-5.00
-2.00
-1.00
-2.00
-2.00
-5.00
-7.00
-3.00
-6.00
-6.00
-10.00
-10.00
-9.00
-6.00
-6.00
-9.00
-17.00
-18.00
-12.00
-11.00
-13.00
-16.00
-6.00
-10.00
-15.00
-11.00
-11.00
-10.00
-13.00
-17.00
-20.00
-17.00
-14.00
-22.00
-21.00
-21.00
-21.00
-13.00
-13.00
-18.00
-22.00
-22.00
-17.00
-17.00
-17.00
-21.00
-25.00
-22.00
-25.00
-18.00
-18.00
-27.00
-27.00
-22.00
-19.00
-26.00
-37.00
-29.00
-22.00
-27.00
-20.00
-14.00
-17.00
-23.00
-22.00
-20.00
-26.00
-19.00
-2.00
6.00
3.00
-1.00
4.00
3.00
2.00
8.00
27.00
33.00
30.00
38.00
30.00
23.00
27.00
3.00
-3.00
-9.00
-10.00
-31.00
-21.00
-18.00
-18.00
-15.00
-19.00
-23.00
-22.00
-22.00
-54.00
-99.00
-143.00
-147.00
-76.00
68.00
251.00
464.00
680.00
773.00
681.00
507.00
342.00
202.00
94.00
38.00
14.00
13.00
9.00
-12.00
-38.00
-41.00
-50.00
-54.00
-48.00
-46.00
-46.00
-33.00
-32.00
-34.00
-49.00
-57.00
-46.00
-48.00
-61.00
-49.00
-40.00
-50.00
-62.00
-56.00
-52.00
-51.00
-50.00
-54.00
-54.00
-50.00
-44.00
-44.00
-61.00
-62.00
-57.00
-52.00
-42.00
-29.00
-34.00
-28.00
-34.00
-28.00
-22.00
-20.00
-19.00
-12.00
-17.00
-10.00
7.00
20.00
5.00
-9.00
-10.00
2.00
17.00
25.00
27.00
35.00
38.00
33.00
27.00
22.00
11.00
9.00
4.00
-5.00
2.00
-3.00
-2.00
-10.00
-16.00
-18.00
-14.00
-1.00
-1.00
3.00
-1.00
-5.00
-6.00
-14.00
-13.00
-19.00
-18.00
-9.00
-8.00
-29.00
-46.00
-39.00
-26.00
-14.00
-14.00
-8.00
-9.00
-14.00
-21.00
-25.00
-26.00
-28.00
-22.00
-18.00
-24.00
-26.00
-26.00
-26.00
-26.00
-22.00
-22.00
-29.00
-36.00
-30.00
-29.00
-24.00
-19.00
-23.00
-28.00
-24.00
-14.00
-25.00
-24.00
-17.00
-25.00
-29.00
-29.00
-36.00
-34.00
-26.00
-32.00
-37.00
-45.00
-30.00
-26.00
-24.00
-22.00
-26.00
-26.00
-26.00
-22.00
-28.00
-35.00
-46.00
-42.00
-42.00
-30.00
-26.00
-32.00
-29.00
-30.00
-30.00
-32.00
-39.00
-39.00
-45.00
-38.00
-30.00
-19.00
-19.00
-22.00
-25.00
-20.00
-2.00
15.00
12.00
10.00
6.00
-1.00
-5.00
-10.00
-8.00
-17.00
-24.00
-29.00
-41.00
-49.00
-58.00
-53.00
-50.00
-49.00
-54.00
-49.00
-40.00
-42.00
-60.00
-116.00
-173.00
-192.00
-147.00
-17.00
163.00
399.00
640.00
733.00
623.00
464.00
323.00
187.00
82.00
28.00
-2.00
-6.00
-20.00
-57.00
-70.00
-89.00
-94.00
-93.00
-82.00
-85.00
-81.00
-80.00
-86.00
-92.00
-84.00
-80.00
-76.00
-81.00
-86.00
-74.00
-76.00
-81.00
-81.00
-83.00
-86.00
-76.00
-69.00
-88.00
-87.00
-83.00
-82.00
-79.00
-76.00
-68.00
-66.00
-64.00
-55.00
-49.00
-47.00
-50.00
-48.00
-42.00
-38.00
-42.00
-37.00
-30.00
-22.00
-13.00
-6.00
-2.00
8.00
10.00
19.00
27.00
23.00
19.00
10.00
-1.00
10.00
14.00
10.00
10.00
6.00
-1.00
-4.00
-10.00
-17.00
-27.00
-22.00
-30.00
-23.00
-17.00
-30.00
-29.00
-28.00
-24.00
-35.00
-46.00
-38.00
-32.00
-28.00
-30.00
-38.00
-36.00
-26.00
-20.00
-30.00
-31.00
-30.00
-32.00
-39.00
-42.00
-39.00
-34.00
-25.00
-21.00
-26.00
-29.00
-29.00
-32.00
-34.00
-36.00
-42.00
-40.00
-43.00
-41.00
-42.00
-44.00
-52.00
-45.00
-42.00
-38.00
-29.00
-26.00
-32.00
-41.00
-34.00
-32.00
-32.00
-29.00
-24.00
-23.00
-18.00
-22.00
-34.00
-32.00
-38.00
-41.00
-42.00
-32.00
-32.00
-41.00
-38.00
-36.00
-26.00
-36.00
-34.00
-30.00
-30.00
-34.00
-34.00
-28.00
-18.00
-5.00
-4.00
-19.00
-38.00
-53.00
-44.00
-36.00
-25.00
-24.00
-18.00
-18.00
-17.00
-9.00
-6.00
-1.00
19.00
15.00
17.00
19.00
35.00
30.00
20.00
-8.00
-10.00
-22.00
-30.00
-32.00
-38.00
-27.00
-30.00
-32.00
-42.00
-44.00
-44.00
-40.00
-46.00
-66.00
-103.00
-161.00
-195.00
-172.00
-78.00
75.00
280.00
516.00
698.00
687.00
529.00
387.00
243.00
107.00
27.00
-22.00
-36.00
-37.00
-42.00
-56.00
-64.00
-60.00
-71.00
-78.00
-73.00
-69.00
-69.00
-73.00
-64.00
-71.00
-70.00
-73.00
-67.00
-64.00
-66.00
-61.00
-58.00
-54.00
-54.00
-60.00
-74.00
-83.00
-76.00
-70.00
-62.00
-58.00
-56.00
-55.00
-58.00
-53.00
-51.00
-44.00
-43.00
-36.00
-42.00
-32.00
-22.00
-12.00
-10.00
-1.00
4.00
19.00
26.00
25.00
26.00
22.00
29.00
32.00
41.00
46.00
49.00
43.00
53.00
50.00
34.00
20.00
22.00
4.00
2.00
5.00
-2.00
-3.00
-10.00
-13.00
-14.00
-21.00
-21.00
-16.00
-14.00
-12.00
-13.00
-14.00
-24.00
-21.00
-18.00
-17.00
-21.00
-18.00
-16.00
-18.00
-14.00
-12.00
-19.00
-21.00
-21.00
-22.00
-22.00
-26.00
-24.00
-24.00
-22.00
-15.00
-8.00
-10.00
-17.00
-15.00
-8.00
-12.00
-10.00
-18.00
-22.00
-28.00
-26.00
-18.00
-17.00
-25.00
-19.00
-15.00
-12.00
-20.00
-24.00
-20.00
-14.00
-17.00
-7.00
-9.00
-13.00
-18.00
-24.00
-18.00
-9.00
-10.00
-21.00
-21.00
-20.00
-22.00
-25.00
-25.00
-24.00
-24.00
-24.00
-24.00
-17.00
-17.00
-21.00
-21.00
-22.00
-9.00
-1.00
-4.00
2.00
17.00
10.00
2.00
3.00
6.00
-1.00
2.00
11.00
23.00
26.00
19.00
22.00
24.00
18.00
14.00
10.00
-6.00
-18.00
-25.00
-18.00
-28.00
-22.00
-25.00
-32.00
-29.00
-28.00
-22.00
-28.00
-30.00
-44.00
-63.00
-125.00
-170.00
-186.00
-116.00
13.00
193.00
423.00
642.00
728.00
624.00
463.00
323.00
186.00
83.00
32.00
-2.00
-10.00
-17.00
-32.00
-38.00
-41.00
-50.00
-53.00
-54.00
-57.00
-56.00
-54.00
-52.00
-52.00
-53.00
-56.00
-54.00
-60.00
-60.00
-63.00
-58.00
-52.00
-54.00
-46.00
-49.00
-48.00
-49.00
-43.00
-42.00
-42.00
-56.00
-62.00
-66.00
-70.00
-57.00
-50.00
-49.00
-45.00
-37.00
-29.00
-30.00
-37.00
-29.00
-32.00
-27.00
-18.00
-13.00
-1.00
6.00
3.00
4.00
14.00
21.00
27.00
35.00
45.00
50.00
48.00
50.00
47.00
39.00
34.00
25.00
14.00
11.00
7.00
8.00
-3.00
-6.00
-6.00
-13.00
-9.00
-4.00
-5.00
6.00
-9.00
-18.00
-24.00
-20.00
-17.00
-29.00
-24.00
-18.00
-12.00
-6.00
-13.00
-14.00
-4.00
-2.00
-5.00
-9.00
-14.00
-4.00
-20.00
-13.00
-19.00
-18.00
-11.00
-13.00
-1.00
-5.00
-9.00
-14.00
-1.00
10.00
1.00
-1.00
7.00
-1.00
-14.00
-1.00
-2.00
3.00
5.00
-1.00
-1.00
3.00
-3.00
-2.00
-2.00
-2.00
4.00
5.00
2.00
-1.00
-2.00
-2.00
-2.00
3.00
-1.00
2.00
6.00
10.00
-2.00
-5.00
-5.00
-2.00
-1.00
-1.00
-5.00
-2.00
-1.00
6.00
3.00
-2.00
6.00
11.00
1.00
8.00
10.00
10.00
8.00
9.00
12.00
7.00
14.00
18.00
20.00
30.00
26.00
26.00
34.00
47.00
58.00
59.00
62.00
58.00
59.00
58.00
59.00
47.00
41.00
32.00
19.00
6.00
2.00
-3.00
-5.00
6.00
7.00
9.00
-1.00
-1.00
-6.00
-21.00
-47.00
-101.00
-142.00
-148.00
-86.00
51.00
227.00
453.00
661.00
739.00
616.00
457.00
326.00
203.00
96.00
42.00
11.00
4.00
2.00
-2.00
-10.00
-36.00
-31.00
-40.00
-26.00
-30.00
-25.00
-37.00
-40.00
-54.00
-52.00
-50.00
-46.00
-45.00
-42.00
-43.00
-37.00
-37.00
-36.00
-35.00
-34.00
-36.00
-32.00
-42.00
-44.00
-41.00
-38.00
-38.00
-38.00
-32.00
-26.00
-16.00
-15.00
-29.00
-28.00
-22.00
-9.00
-13.00
-5.00
-10.00
-1.00
-3.00
12.00
18.00
26.00
28.00
28.00
27.00
35.00
47.00
55.00
55.00
53.00
55.00
58.00
50.00
42.00
34.00
19.00
2.00
-2.00
-15.00
-25.00
-17.00
-2.00
-1.00
-14.00
-14.00
-6.00
-6.00
-16.00
-24.00
-24.00
-23.00
-29.00
-32.00
-25.00
-31.00
-27.00
-26.00
-30.00
-30.00
-27.00
-4.00
2.00
-2.00
-8.00
-14.00
-18.00
-24.00
-34.00
-38.00
-39.00
-34.00
-29.00
-25.00
-20.00
-25.00
-23.00
-30.00
-37.00
-30.00
-38.00
-33.00
-22.00
-22.00
-22.00
-25.00
-26.00
-27.00
-30.00
-32.00
-31.00
-32.00
-29.00
-38.00
-37.00
-41.00
-38.00
-27.00
-32.00
-40.00
-38.00
-39.00
-32.00
-30.00
-36.00
-32.00
-36.00
-30.00
-29.00
-26.00
-32.00
-32.00
-25.00
-27.00
-30.00
-38.00
-34.00
-30.00
-35.00
-32.00
-29.00
-41.00
-38.00
-28.00
-30.00
-14.00
-13.00
-25.00
-32.00
-29.00
-36.00
-20.00
-17.00
-25.00
-21.00
-12.00
8.00
2.00
7.00
12.00
21.00
27.00
28.00
22.00
17.00
9.00
13.00
13.00
7.00
-5.00
-10.00
-24.00
-34.00
-32.00
-26.00
-28.00
-21.00
-26.00
-34.00
-32.00
-34.00
-36.00
-50.00
-75.00
-128.00
-164.00
-143.00
-69.00
59.00
257.00
497.00
680.00
675.00
517.00
354.00
208.00
91.00
17.00
-15.00
-26.00
-28.00
-37.00
-42.00
-54.00
-54.00
-57.00
-60.00
-64.00
-61.00
-70.00
-66.00
-62.00
-63.00
-60.00
-54.00
-53.00
-66.00
-59.00
-63.00
-73.00
-63.00
-60.00
-60.00
-67.00
-66.00
-68.00
-58.00
-60.00
-44.00
-46.00
-50.00
-53.00
-52.00
-62.00
-57.00
-39.00
-43.00
-38.00
-46.00
-38.00
-36.00
-26.00
-29.00
-29.00
-12.00
2.00
8.00
2.00
12.00
22.00
32.00
38.00
35.00
29.00
27.00
36.00
22.00
10.00
18.00
5.00
-1.00
3.00
-10.00
-26.00
-24.00
-30.00
-20.00
-28.00
-32.00
-34.00
-41.00
-47.00
-41.00
-32.00
-38.00
-38.00
-46.00
-42.00
-52.00
-58.00
-57.00
-60.00
-56.00
-38.00
-30.00
-30.00
-38.00
-42.00
-52.00
-55.00
-62.00
-50.00
-39.00
-29.00
-32.00
-29.00
-30.00
-33.00
-46.00
-49.00
-47.00
-34.00
-26.00
-19.00
-23.00
-49.00
-67.00
-71.00
-56.00
-44.00
-42.00
-53.00
-53.00
-40.00
-38.00
-44.00
-50.00
-44.00
-51.00
-35.00
-38.00
-50.00
-38.00
-38.00
-41.00
-60.00
-51.00
-44.00
-40.00
-41.00
-46.00
-49.00
-34.00
-44.00
-51.00
-51.00
-42.00
-42.00
-42.00
-36.00
-42.00
-52.00
-54.00
-46.00
-49.00
-52.00
-47.00
-53.00
-50.00
-38.00
-37.00
-31.00
-57.00
-36.00
-40.00
-38.00
-26.00
-28.00
-19.00
-20.00
-6.00
-2.00
-12.00
3.00
2.00
-4.00
-13.00
-8.00
-13.00
-25.00
-50.00
-54.00
-56.00
-64.00
-63.00
-50.00
-57.00
-66.00
-64.00
-44.00
-52.00
-76.00
-91.00
-101.00
-155.00
-203.00
-199.00
-134.00
14.00
184.00
393.00
610.00
683.00
573.00
421.00
291.00
151.00
46.00
-5.00
-34.00
-46.00
-62.00
-78.00
-83.00
-82.00
-78.00
-85.00
-85.00
-86.00
-77.00
-71.00
-74.00
-82.00
-77.00
-67.00
-67.00
-83.00
-91.00
-82.00
-81.00
-81.00
-74.00
-81.00
-77.00
-74.00
-62.00
-53.00
-56.00
-41.00
-45.00
-64.00
-78.00
-74.00
-60.00
-54.00
-47.00
-52.00
-44.00
-39.00
-38.00
-36.00
-46.00
-42.00
-34.00
-28.00
-14.00
-5.00
11.00
12.00
10.00
14.00
25.00
29.00
34.00
35.00
35.00
28.00
33.00
33.00
26.00
19.00
6.00
-1.00
-9.00
-14.00
-14.00
-21.00
-40.00
-42.00
-46.00
-40.00
-58.00
-61.00
-63.00
-54.00
-44.00
-44.00
-46.00
-54.00
-53.00
-52.00
-59.00
-50.00
-52.00
-54.00
-69.00
-69.00
-50.00
-50.00
-68.00
-63.00
-58.00
-55.00
-61.00
-70.00
-52.00
-58.00
-52.00
-52.00
-45.00
-58.00
-70.00
-72.00
-46.00
-50.00
-62.00
-38.00
-40.00
-58.00
-68.00
-62.00
-49.00
-46.00
-43.00
-38.00
-52.00
-61.00
-72.00
-74.00
-70.00
-54.00
-60.00
-54.00
-49.00
-38.00
-47.00
-49.00
-53.00
-56.00
-54.00
-58.00
-60.00
-74.00
-69.00
-60.00
-53.00
-54.00
-68.00
-72.00
-72.00
-62.00
-68.00
-66.00
-57.00
-73.00
-73.00
-69.00
-53.00
-50.00
-70.00
-82.00
-78.00
-66.00
-62.00
-69.00
-71.00
-58.00
-53.00
-62.00
-58.00
-51.00
-62.00
-60.00
-53.00
-38.00
-34.00
-30.00
-18.00
-14.00
-14.00
-16.00
-18.00
-22.00
-30.00
-38.00
-38.00
-41.00
-58.00
-58.00
-62.00
-60.00
-62.00
-62.00
-62.00
-49.00
-58.00
-66.00
-84.00
-102.00
-124.00
-179.00
-196.00
-148.00
-5.00
181.00
384.00
619.00
735.00
644.00
463.00
288.00
123.00
22.00
-32.00
-34.00
-29.00
-32.00
-36.00
-46.00
-65.00
-70.00
-64.00
-70.00
-77.00
-70.00
-72.00
-69.00
-90.00
-86.00
-82.00
-62.00
-38.00
-48.00
-62.00
-58.00
-58.00
-54.00
-60.00
-60.00
-66.00
-70.00
-58.00
-58.00
-58.00
-58.00
-55.00
-42.00
-48.00
-58.00
-57.00
-58.00
-49.00
-42.00
-42.00
-27.00
-6.00
-1.00
-5.00
-2.00
5.00
22.00
24.00
14.00
24.00
19.00
26.00
39.00
75.00
83.00
70.00
57.00
51.00
46.00
36.00
38.00
30.00
18.00
12.00
7.00
-2.00
-6.00
-19.00
-18.00
-28.00
-25.00
-21.00
-13.00
-23.00
-22.00
-5.00
-1.00
-13.00
-23.00
-22.00
-24.00
-22.00
-26.00
-32.00
-34.00
-26.00
-32.00
-35.00
-37.00
-40.00
-34.00
-34.00
-26.00
-24.00
-29.00
-28.00
-34.00
-32.00
-32.00
-24.00
-26.00
-30.00
-29.00
-25.00
-23.00
-30.00
-22.00
-5.00
-3.00
-9.00
-20.00
-13.00
-8.00
-10.00
-20.00
-18.00
-21.00
-18.00
-6.00
-20.00
-22.00
-18.00
-24.00
-22.00
-22.00
-21.00
-30.00
-25.00
-22.00
-21.00
-26.00
-26.00
-25.00
-22.00
-23.00
-22.00
-25.00
-26.00
-28.00
-13.00
-20.00
-32.00
-31.00
-18.00
-22.00
-9.00
-5.00
-8.00
-10.00
-17.00
-22.00
-24.00
-25.00
-18.00
-14.00
-22.00
-24.00
-26.00
-28.00
-29.00
-22.00
-15.00
-14.00
-9.00
3.00
7.00
2.00
-2.00
-1.00
7.00
30.00
32.00
27.00
19.00
22.00
16.00
11.00
11.00
2.00
-9.00
-17.00
-25.00
-22.00
-36.00
-50.00
-59.00
-38.00
-28.00
-22.00
-26.00
-40.00
-40.00
-54.00
-87.00
-135.00
-171.00
-143.00
-36.00
121.00
331.00
571.00
756.00
762.00
613.00
424.00
257.00
129.00
42.00
-9.00
-33.00
-32.00
-25.00
-30.00
-38.00
-42.00
-42.00
-41.00
-40.00
-54.00
-54.00
-61.00
-61.00
-62.00
-68.00
-54.00
-46.00
-45.00
-54.00
-58.00
-61.00
-58.00
-54.00
-53.00
-67.00
-56.00
-48.00
-44.00
-45.00
-44.00
-38.00
-34.00
-37.00
-45.00
-44.00
-42.00
-32.00
-25.00
-26.00
-15.00
-13.00
-12.00
2.00
7.00
10.00
14.00
22.00
32.00
43.00
54.00
59.00
58.00
65.00
61.00
59.00
66.00
68.00
62.00
55.00
55.00
47.00
35.00
24.00
10.00
4.00
-4.00
-10.00
-9.00
-6.00
-13.00
-6.00
-9.00
-12.00
-10.00
-10.00
-8.00
-5.00
-2.00
-5.00
-14.00
-18.00
-21.00
-26.00
-18.00
-17.00
-25.00
-32.00
-38.00
-32.00
-26.00
-17.00
-18.00
-18.00
-22.00
-13.00
-10.00
-10.00
-10.00
-10.00
-10.00
-11.00
-22.00
-17.00
-14.00
-14.00
-10.00
-6.00
-10.00
-10.00
-14.00
-14.00
-9.00
-1.00
9.00
8.00
6.00
2.00
-2.00
-6.00
-1.00
6.00
10.00
10.00
15.00
14.00
14.00
10.00
15.00
5.00
5.00
10.00
14.00
19.00
18.00
9.00
10.00
15.00
12.00
23.00
23.00
13.00
11.00
14.00
14.00
10.00
8.00
-1.00
3.00
8.00
13.00
10.00
15.00
14.00
24.00
30.00
27.00
22.00
25.00
26.00
26.00
22.00
28.00
27.00
24.00
32.00
42.00
47.00
47.00
43.00
44.00
46.00
65.00
79.00
78.00
83.00
79.00
79.00
77.00
73.00
63.00
54.00
36.00
35.00
29.00
26.00
18.00
15.00
25.00
19.00
15.00
19.00
14.00
10.00
10.00
10.00
-14.00
-62.00
-117.00
-140.00
-115.00
-1.00
155.00
369.00
595.00
759.00
737.00
582.00
411.00
271.00
147.00
79.00
45.00
27.00
25.00
14.00
6.00
-1.00
-10.00
-18.00
-26.00
-29.00
-28.00
-37.00
-42.00
-38.00
-37.00
-32.00
-39.00
-46.00
-41.00
-32.00
-28.00
-37.00
-21.00
-33.00
-34.00
-36.00
-34.00
-32.00
-22.00
-36.00
-37.00
-27.00
-32.00
-38.00
-34.00
-37.00
-30.00
-22.00
-18.00
-12.00
-2.00
-6.00
-1.00
3.00
15.00
11.00
13.00
7.00
13.00
29.00
41.00
42.00
33.00
34.00
51.00
58.00
61.00
66.00
70.00
58.00
51.00
38.00
34.00
26.00
23.00
15.00
12.00
6.00
-2.00
-1.00
-3.00
-4.00
-1.00
2.00
-6.00
-5.00
-13.00
-9.00
-1.00
-1.00
-1.00
2.00
15.00
18.00
4.00
2.00
-15.00
-17.00
-20.00
-20.00
-12.00
-10.00
-15.00
-17.00
-14.00
-17.00
-10.00
-6.00
-2.00
-5.00
-6.00
-1.00
-25.00
-17.00
-10.00
5.00
-3.00
3.00
7.00
-4.00
-17.00
-13.00
-10.00
-14.00
2.00
10.00
-2.00
-34.00
-34.00
-30.00
-25.00
-17.00
-1.00
9.00
-4.00
-10.00
-13.00
-6.00
-2.00
-10.00
-4.00
-10.00
-3.00
-10.00
-5.00
-6.00
-1.00
-1.00
-10.00
-2.00
-12.00
-12.00
-14.00
-11.00
-13.00
-2.00
2.00
-1.00
-2.00
-5.00
-2.00
-1.00
3.00
-1.00
5.00
-1.00
4.00
5.00
14.00
-5.00
-4.00
7.00
11.00
10.00
3.00
8.00
17.00
30.00
43.00
50.00
60.00
58.00
44.00
55.00
50.00
46.00
36.00
21.00
13.00
7.00
-2.00
-5.00
7.00
22.00
14.00
8.00
-6.00
-24.00
-32.00
-20.00
-9.00
-26.00
-104.00
-173.00
-170.00
-90.00
47.00
232.00
455.00
664.00
723.00
597.00
446.00
307.00
167.00
60.00
15.00
-5.00
-17.00
-27.00
-28.00
-25.00
-36.00
-39.00
-46.00
-54.00
-61.00
-62.00
-44.00
-39.00
-45.00
-57.00
-61.00
-74.00
-77.00
-78.00
-49.00
-35.00
-30.00
-50.00
-66.00
-62.00
-66.00
-58.00
-40.00
-22.00
-49.00
-77.00
-89.00
-88.00
-70.00
-50.00
-36.00
-20.00
-13.00
-35.00
-49.00
-70.00
-75.00
-83.00
-67.00
-42.00
-50.00
-50.00
-26.00
15.00
27.00
20.00
11.00
39.00
70.00
75.00
63.00
5.00
-34.00
-28.00
-14.00
-1.00
-17.00
-12.00
-11.00
-18.00
-25.00
-1.00
12.00
-26.00
-50.00
-46.00
-14.00
21.00
34.00
-8.00
-64.00
-47.00
-39.00
-32.00
-21.00
-58.00
-98.00
-96.00
-72.00
-32.00
-6.00
-26.00
-52.00
-67.00
-76.00
-52.00
-17.00
4.00
9.00
11.00
-26.00
-62.00
-69.00
-72.00
-78.00
-58.00
-40.00
-38.00
-64.00
-42.00
-10.00
-10.00
-36.00
-43.00
-9.00
3.00
-30.00
-49.00
-17.00
-14.00
-49.00
-63.00
-78.00
-84.00
-51.00
-12.00
-13.00
-44.00
-34.00
-24.00
-18.00
-52.00
-69.00
-46.00
-10.00
-7.00
-14.00
-14.00
-69.00
-110.00
-81.00
-21.00
-10.00
-58.00
-82.00
-13.00
47.00
44.00
-28.00
-78.00
-99.00
-87.00
-17.00
86.00
119.00
8.00
-130.00
-139.00
-85.00
-47.00
-58.00
-37.00
-13.00
-26.00
-63.00
-28.00
22.00
90.00
123.00
80.00
-6.00
-84.00
-30.00
35.00
39.00
-44.00
-129.00
-122.00
-86.00
-49.00
-10.00
11.00
-20.00
-84.00
-156.00
-148.00
-42.00
59.00
74.00
-32.00
-192.00
-285.00
-235.00
-31.00
299.00
593.00
743.00
667.00
443.00
249.00
141.00
134.00
171.00
139.00
-21.00
-143.00
-156.00
-116.00
-70.00
-46.00
-37.00
-34.00
-46.00
-64.00
-71.00
-73.00
-71.00
-58.00
-50.00
-54.00
-52.00
-44.00
-46.00
-62.00
-66.00
-57.00
-56.00
-64.00
-70.00
-61.00
-50.00
-54.00
-58.00
-54.00
-47.00
-47.00
-50.00
-44.00
-41.00
-40.00
-45.00
-41.00
-30.00
-34.00
-30.00
-26.00
-18.00
-13.00
-11.00
-6.00
7.00
10.00
17.00
27.00
34.00
45.00
46.00
54.00
65.00
71.00
65.00
64.00
74.00
83.00
77.00
61.00
47.00
45.00
27.00
14.00
6.00
15.00
10.00
10.00
7.00
10.00
12.00
23.00
27.00
37.00
23.00
32.00
26.00
27.00
20.00
7.00
15.00
13.00
20.00
18.00
19.00
23.00
15.00
10.00
15.00
10.00
-2.00
-9.00
-6.00
-1.00
7.00
11.00
27.00
38.00
24.00
23.00
32.00
38.00
24.00
27.00
25.00
35.00
33.00
21.00
18.00
22.00
24.00
21.00
18.00
24.00
22.00
10.00
2.00
13.00
8.00
5.00
11.00
16.00
8.00
-1.00
4.00
2.00
9.00
6.00
4.00
15.00
32.00
22.00
14.00
13.00
11.00
3.00
3.00
14.00
21.00
10.00
10.00
11.00
14.00
10.00
10.00
8.00
13.00
18.00
11.00
15.00
14.00
13.00
22.00
38.00
59.00
75.00
67.00
68.00
66.00
59.00
55.00
51.00
62.00
57.00
47.00
39.00
26.00
14.00
-4.00
-5.00
-1.00
-1.00
-2.00
-1.00
-2.00
-1.00
-14.00
-20.00
-32.00
-56.00
-124.00
-158.00
-122.00
-18.00
131.00
331.00
571.00
747.00
739.00
585.00
435.00
307.00
183.00
91.00
46.00
27.00
11.00
2.00
-9.00
-5.00
-10.00
-17.00
-30.00
-22.00
-18.00
-27.00
-25.00
-14.00
-20.00
-29.00
-32.00
-30.00
-28.00
-26.00
-30.00
-29.00
-18.00
-28.00
-34.00
-29.00
-27.00
-30.00
-30.00
-29.00
-17.00
-17.00
-26.00
-24.00
-14.00
-20.00
-17.00
-9.00
2.00
-5.00
-6.00
-1.00
5.00
10.00
4.00
19.00
39.00
47.00
42.00
47.00
65.00
64.00
66.00
67.00
77.00
82.00
82.00
87.00
94.00
95.00
86.00
87.00
91.00
83.00
74.00
62.00
74.00
65.00
56.00
58.00
59.00
43.00
35.00
32.00
45.00
45.00
38.00
35.00
42.00
48.00
35.00
41.00
42.00
41.00
32.00
34.00
41.00
38.00
28.00
27.00
43.00
40.00
34.00
35.00
43.00
40.00
30.00
29.00
38.00
40.00
32.00
31.00
34.00
35.00
25.00
32.00
36.00
30.00
34.00
39.00
38.00
34.00
29.00
32.00
42.00
44.00
34.00
29.00
38.00
34.00
27.00
32.00
30.00
35.00
28.00
27.00
26.00
30.00
18.00
26.00
26.00
34.00
26.00
23.00
22.00
26.00
27.00
27.00
34.00
38.00
30.00
19.00
15.00
22.00
19.00
21.00
20.00
39.00
32.00
29.00
24.00
35.00
42.00
39.00
34.00
44.00
35.00
35.00
56.00
78.00
74.00
70.00
70.00
74.00
71.00
59.00
50.00
51.00
54.00
41.00
24.00
27.00
17.00
18.00
22.00
18.00
14.00
10.00
6.00
5.00
16.00
7.00
-19.00
-47.00
-90.00
-134.00
-136.00
-46.00
99.00
285.00
505.00
707.00
761.00
638.00
467.00
323.00
198.00
100.00
38.00
9.00
11.00
11.00
-2.00
-12.00
-9.00
-10.00
-19.00
-24.00
-24.00
-28.00
-32.00
-44.00
-36.00
-32.00
-38.00
-41.00
-22.00
-13.00
-22.00
-30.00
-16.00
-13.00
-26.00
-37.00
-34.00
-25.00
-34.00
-32.00
-30.00
-21.00
-26.00
-29.00
-32.00
-16.00
-18.00
-38.00
-29.00
-22.00
-18.00
-29.00
-17.00
-4.00
-8.00
-10.00
-6.00
14.00
27.00
27.00
24.00
34.00
52.00
43.00
52.00
51.00
55.00
50.00
65.00
51.00
50.00
39.00
38.00
28.00
26.00
13.00
3.00
12.00
6.00
-3.00
-6.00
-1.00
-1.00
-10.00
-10.00
-10.00
0.00
-2.00
-10.00
-1.00
-1.00
-3.00
-2.00
3.00
7.00
-1.00
-19.00
-15.00
-9.00
-13.00
-12.00
-2.00
5.00
1.00
-5.00
-1.00
1.00
-1.00
-10.00
-1.00
5.00
2.00
-9.00
-4.00
-1.00
-12.00
-12.00
-6.00
-2.00
-12.00
-8.00
2.00
2.00
-1.00
-2.00
-2.00
4.00
-2.00
-6.00
3.00
2.00
-8.00
-4.00
2.00
10.00
3.00
-1.00
9.00
6.00
-1.00
2.00
8.00
5.00
-1.00
2.00
9.00
22.00
14.00
8.00
11.00
15.00
12.00
-1.00
11.00
13.00
10.00
-1.00
14.00
27.00
21.00
24.00
32.00
40.00
38.00
38.00
65.00
63.00
47.00
46.00
50.00
55.00
45.00
28.00
18.00
19.00
19.00
3.00
-3.00
2.00
6.00
-2.00
-13.00
2.00
-2.00
-3.00
3.00
-2.00
-18.00
-50.00
-98.00
-136.00
-138.00
-69.00
87.00
283.00
518.00
723.00
782.00
659.00
495.00
329.00
193.00
83.00
45.00
13.00
2.00
6.00
7.00
-21.00
-32.00
-34.00
-25.00
-33.00
-44.00
-34.00
-32.00
-34.00
-38.00
-45.00
-25.00
-21.00
-38.00
-51.00
-38.00
-41.00
-46.00
-39.00
-28.00
-34.00
-35.00
-36.00
-38.00
-27.00
-30.00
-40.00
-18.00
-17.00
-29.00
-30.00
-22.00
-5.00
-18.00
-10.00
-14.00
-1.00
-10.00
-17.00
3.00
9.00
-1.00
7.00
27.00
32.00
34.00
32.00
42.00
53.00
59.00
50.00
59.00
67.00
73.00
73.00
69.00
67.00
61.00
43.00
36.00
34.00
22.00
23.00
18.00
22.00
11.00
4.00
18.00
14.00
17.00
-5.00
6.00
15.00
1.00
-14.00
-1.00
7.00
6.00
-8.00
-1.00
6.00
-5.00
-15.00
4.00
19.00
11.00
-12.00
-5.00
-6.00
-9.00
-1.00
-1.00
15.00
8.00
-1.00
-5.00
10.00
10.00
5.00
8.00
9.00
12.00
11.00
10.00
16.00
16.00
14.00
4.00
20.00
26.00
9.00
2.00
10.00
22.00
8.00
3.00
8.00
18.00
11.00
5.00
17.00
20.00
6.00
-10.00
-1.00
15.00
23.00
17.00
10.00
21.00
10.00
14.00
17.00
19.00
18.00
-1.00
-6.00
19.00
26.00
13.00
6.00
18.00
34.00
35.00
33.00
27.00
20.00
-2.00
10.00
34.00
54.00
53.00
47.00
53.00
54.00
38.00
38.00
42.00
42.00
38.00
32.00
32.00
26.00
15.00
8.00
14.00
32.00
20.00
11.00
-1.00
2.00
8.00
-4.00
-18.00
-54.00
-102.00
-149.00
-155.00
-78.00
70.00
266.00
494.00
707.00
776.00
653.00
487.00
339.00
210.00
117.00
65.00
35.00
27.00
14.00
-1.00
-36.00
-30.00
-10.00
-10.00
-24.00
-22.00
-32.00
-41.00
-42.00
-38.00
-28.00
-24.00
-24.00
-32.00
-30.00
-26.00
-21.00
-18.00
-36.00
-49.00
-36.00
-24.00
-9.00
-14.00
-18.00
-10.00
-14.00
-25.00
-36.00
-40.00
-47.00
-34.00
-26.00
-22.00
-14.00
-9.00
-10.00
-6.00
4.00
11.00
14.00
27.00
35.00
34.00
39.00
39.00
46.00
55.00
55.00
49.00
58.00
62.00
62.00
59.00
58.00
42.00
39.00
34.00
34.00
25.00
22.00
23.00
12.00
15.00
21.00
21.00
23.00
20.00
16.00
2.00
-17.00
-38.00
-25.00
-8.00
-18.00
-12.00
-1.00
6.00
-10.00
-12.00
-6.00
-10.00
-17.00
-5.00
2.00
-6.00
-14.00
-8.00
-2.00
-5.00
-17.00
-14.00
-6.00
-5.00
-19.00
-17.00
-3.00
-9.00
-27.00
-23.00
-13.00
-22.00
-37.00
-25.00
-17.00
-8.00
-17.00
-17.00
-3.00
-1.00
-10.00
6.00
22.00
-41.00
-81.00
-42.00
-4.00
-21.00
-49.00
-75.00
-58.00
-44.00
-40.00
-37.00
-21.00
-18.00
-26.00
-14.00
7.00
25.00
4.00
-41.00
-49.00
-38.00
-38.00
-44.00
-50.00
-46.00
-44.00
-42.00
-30.00
-26.00
-24.00
-21.00
-9.00
-14.00
-29.00
-17.00
5.00
11.00
14.00
15.00
14.00
11.00
-1.00
6.00
14.00
6.00
-14.00
-21.00
-20.00
-32.00
-47.00
-40.00
-25.00
-22.00
-30.00
-41.00
-38.00
-32.00
-41.00
-52.00
-72.00
-99.00
-148.00
-184.00
-155.00
-34.00
123.00
339.00
582.00
728.00
667.00
504.00
347.00
203.00
84.00
26.00
-10.00
-18.00
-14.00
-10.00
-30.00
-56.00
-75.00
-84.00
-84.00
-74.00
-66.00
-66.00
-61.00
-64.00
-58.00
-58.00
-72.00
-73.00
-72.00
-62.00
-56.00
-50.00
-42.00
-49.00
-58.00
-58.00
-60.00
-50.00
-50.00
-49.00
-45.00
-38.00
-26.00
-34.00
-36.00
-42.00
-42.00
-42.00
-40.00
-36.00
-45.00
-60.00
-48.00
-37.00
-29.00
-13.00
-17.00
-8.00
6.00
11.00
18.00
27.00
34.00
39.00
46.00
50.00
56.00
46.00
43.00
41.00
29.00
19.00
9.00
6.00
6.00
-4.00
-8.00
-6.00
-5.00
-13.00
-18.00
-17.00
-18.00
-14.00
-20.00
-18.00
-17.00
-22.00
-25.00
-16.00
-9.00
-17.00
-26.00
-18.00
-17.00
-18.00
-18.00
-17.00
-20.00
-17.00
-14.00
-25.00
-18.00
-17.00
-12.00
-14.00
-30.00
-39.00
-34.00
-30.00
-25.00
-24.00
-26.00
-27.00
-21.00
-22.00
-25.00
-18.00
-22.00
-21.00
-17.00
-18.00
-26.00
-26.00
-22.00
-27.00
-31.00
-29.00
-18.00
-15.00
-28.00
-35.00
-25.00
-32.00
-28.00
-10.00
-11.00
-19.00
-26.00
-31.00
-26.00
-21.00
-23.00
-29.00
-19.00
-17.00
-13.00
-11.00
-16.00
-15.00
-13.00
-22.00
-20.00
-18.00
-17.00
-26.00
-26.00
-20.00
-23.00
-17.00
-9.00
-10.00
-10.00
-6.00
-8.00
-17.00
-18.00
-6.00
8.00
8.00
-4.00
7.00
20.00
19.00
13.00
10.00
10.00
-1.00
-15.00
-21.00
-13.00
-18.00
-32.00
-26.00
-18.00
-22.00
-38.00
-36.00
-22.00
-26.00
-38.00
-54.00
-104.00
-160.00
-186.00
-140.00
4.00
185.00
405.00
632.00
751.00
677.00
498.00
337.00
199.00
98.00
23.00
-17.00
-34.00
-41.00
-54.00
-60.00
-48.00
-53.00
-70.00
-78.00
-74.00
-70.00
-74.00
-78.00
-69.00
-67.00
-73.00
-80.00
-57.00
-54.00
-78.00
-80.00
-70.00
-71.00
-74.00
-57.00
-53.00
-49.00
-57.00
-58.00
-58.00
-67.00
-70.00
-71.00
-62.00
-57.00
-64.00
-66.00
-50.00
-39.00
-46.00
-44.00
-46.00
-41.00
-39.00
-36.00
-34.00
-20.00
-9.00
-2.00
-2.00
7.00
17.00
11.00
11.00
19.00
27.00
26.00
25.00
28.00
37.00
22.00
22.00
11.00
21.00
4.00
-11.00
-18.00
-18.00
-14.00
-34.00
-32.00
-22.00
-21.00
-32.00
-30.00
-8.00
-3.00
-19.00
-29.00
-29.00
-12.00
-17.00
-15.00
-17.00
-11.00
-22.00
-25.00
-13.00
-13.00
-18.00
-28.00
-25.00
-17.00
-13.00
-18.00
-17.00
-14.00
-28.00
-44.00
-44.00
-32.00
-28.00
-26.00
-25.00
-17.00
-20.00
-30.00
-34.00
-34.00
-31.00
-30.00
-22.00
-9.00
-17.00
-10.00
-27.00
-28.00
-28.00
-26.00
-24.00
-26.00
-29.00
-18.00
-17.00
-18.00
-20.00
-17.00
-15.00
-19.00
-22.00
-20.00
-18.00
-18.00
-26.00
-34.00
-38.00
-42.00
-39.00
-39.00
-34.00
-30.00
-37.00
-34.00
-34.00
-30.00
-26.00
-23.00
-29.00
-28.00
-30.00
-36.00
-28.00
-29.00
-31.00
-31.00
-28.00
-19.00
-21.00
-27.00
-29.00
-11.00
-12.00
-7.00
-10.00
-10.00
-1.00
4.00
22.00
35.00
42.00
27.00
15.00
10.00
5.00
10.00
8.00
5.00
-7.00
-10.00
-20.00
-25.00
-41.00
-36.00
-38.00
-34.00
-35.00
-38.00
-36.00
-39.00
-30.00
-49.00
-64.00
-98.00
-155.00
-195.00
-183.00
-94.00
49.00
241.00
478.00
689.00
752.00
627.00
461.00
309.00
178.00
86.00
28.00
-16.00
-38.00
-45.00
-52.00
-70.00
-81.00
-74.00
-76.00
-81.00
-90.00
-96.00
-88.00
-87.00
-82.00
-89.00
-86.00
-84.00
-82.00
-81.00
-78.00
-85.00
-82.00
-77.00
-84.00
-88.00
-86.00
-74.00
-71.00
-70.00
-78.00
-84.00
-81.00
-77.00
-73.00
-72.00
-74.00
-68.00
-75.00
-78.00
-66.00
-68.00
-66.00
-64.00
-56.00
-48.00
-42.00
-41.00
-29.00
-13.00
-10.00
-16.00
-18.00
-3.00
10.00
6.00
14.00
20.00
22.00
18.00
19.00
15.00
9.00
-10.00
-17.00
-18.00
-25.00
-29.00
-29.00
-32.00
-40.00
-46.00
-44.00
-54.00
-46.00
-47.00
-50.00
-54.00
-50.00
-57.00
-58.00
-62.00
-58.00
-49.00
-54.00
-49.00
-44.00
-37.00
-53.00
-62.00
-69.00
-71.00
-54.00
-53.00
-45.00
-53.00
-45.00
-53.00
-59.00
-73.00
-54.00
-51.00
-57.00
-55.00
-61.00
-41.00
-49.00
-57.00
-49.00
-49.00
-64.00
-69.00
-65.00
-50.00
-53.00
-58.00
-61.00
-42.00
-50.00
-67.00
-70.00
-61.00
-64.00
-61.00
-54.00
-44.00
-50.00
-58.00
-70.00
-63.00
-61.00
-56.00
-65.00
-61.00
-49.00
-51.00
-69.00
-63.00
-53.00
-62.00
-64.00
-58.00
-57.00
-60.00
-62.00
-62.00
-56.00
-60.00
-64.00
-63.00
-54.00
-56.00
-60.00
-62.00
-59.00
-64.00
-64.00
-58.00
-43.00
-49.00
-48.00
-46.00
-36.00
-30.00
-36.00
-49.00
-46.00
-26.00
-13.00
-1.00
6.00
-1.00
-12.00
-29.00
-18.00
-10.00
-8.00
-17.00
-43.00
-68.00
-62.00
-68.00
-70.00
-64.00
-53.00
-57.00
-70.00
-60.00
-52.00
-66.00
-90.00
-90.00
-103.00
-141.00
-205.00
-232.00
-191.00
-83.00
65.00
259.00
485.00
683.00
709.00
553.00
395.00
251.00
115.00
14.00
-26.00
-52.00
-67.00
-76.00
-86.00
-89.00
-99.00
-102.00
-111.00
-105.00
-108.00
-114.00
-107.00
-93.00
-100.00
-110.00
-115.00
-97.00
-115.00
-139.00
-120.00
-110.00
-123.00
-131.00
-134.00
-124.00
-107.00
-108.00
-111.00
-108.00
-100.00
-115.00
-113.00
-94.00
-96.00
-107.00
-104.00
-86.00
-81.00
-92.00
-82.00
-86.00
-81.00
-74.00
-74.00
-70.00
-60.00
-54.00
-54.00
-50.00
-41.00
-29.00
-15.00
-17.00
-13.00
-9.00
-6.00
-2.00
4.00
3.00
-1.00
-8.00
-14.00
-13.00
-16.00
-24.00
-36.00
-42.00
-42.00
-50.00
-53.00
-50.00
-48.00
-50.00
-62.00
-64.00
-67.00
-63.00
-68.00
-66.00
-78.00
-73.00
-69.00
-66.00
-63.00
-64.00
-64.00
-62.00
-72.00
-70.00
-66.00
-64.00
-71.00
-73.00
-66.00
-71.00
-70.00
-68.00
-64.00
-54.00
-61.00
-81.00
-88.00
-85.00
-78.00
-81.00
-69.00
-66.00
-68.00
-71.00
-55.00
-53.00
-53.00
-55.00
-58.00
-54.00
-66.00
-64.00
-66.00
-53.00
-51.00
-46.00
-55.00
-54.00
-48.00
-53.00
-54.00
-54.00
-61.00
-57.00
-57.00
-51.00
-57.00
-52.00
-54.00
-55.00
-57.00
-51.00
-45.00
-31.00
-37.00
-39.00
-37.00
-34.00
-34.00
-32.00
-36.00
-30.00
-30.00
-39.00
-37.00
-40.00
-34.00
-30.00
-32.00
-36.00
-41.00
-37.00
-27.00
-30.00
-20.00
-10.00
-20.00
-20.00
-25.00
-23.00
-14.00
-5.00
10.00
16.00
19.00
22.00
18.00
17.00
18.00
9.00
7.00
6.00
-4.00
-15.00
-27.00
-34.00
-42.00
-44.00
-46.00
-50.00
-49.00
-43.00
-43.00
-44.00
-52.00
-62.00
-119.00
-175.00
-188.00
-136.00
-13.00
154.00
377.00
610.00
752.00
706.00
537.00
375.00
229.00
107.00
32.00
-2.00
-34.00
-43.00
-48.00
-58.00
-64.00
-76.00
-72.00
-73.00
-76.00
-69.00
-73.00
-76.00
-76.00
-76.00
-65.00
-64.00
-58.00
-59.00
-66.00
-64.00
-68.00
-68.00
-67.00
-81.00
-81.00
-87.00
-78.00
-76.00
-77.00
-60.00
-60.00
-62.00
-53.00
-56.00
-49.00
-44.00
-50.00
-56.00
-66.00
-66.00
-63.00
-61.00
-54.00
-40.00
-36.00
-36.00
-22.00
-17.00
-17.00
-16.00
-10.00
-5.00
6.00
6.00
2.00
8.00
6.00
14.00
15.00
14.00
4.00
-10.00
-6.00
-14.00
-14.00
-21.00
-30.00
-38.00
-39.00
-40.00
-44.00
-56.00
-56.00
-71.00
-61.00
-50.00
-42.00
-41.00
-51.00
-54.00
-45.00
-52.00
-59.00
-63.00
-65.00
-64.00
-61.00
-68.00
-56.00
-60.00
-62.00
-73.00
-74.00
-76.00
-76.00
-70.00
-68.00
-63.00
-61.00
-56.00
-54.00
-59.00
-64.00
-60.00
-58.00
-58.00
-64.00
-58.00
-42.00
-42.00
-44.00
-62.00
-58.00
-49.00
-45.00
-48.00
-46.00
-42.00
-49.00
-50.00
-52.00
-49.00
-50.00
-45.00
-47.00
-52.00
-54.00
-57.00
-54.00
-54.00
-54.00
-58.00
-54.00
-58.00
-58.00
-54.00
-62.00
-54.00
-53.00
-57.00
-47.00
-44.00
-48.00
-49.00
-42.00
-44.00
-51.00
-56.00
-46.00
-45.00
-44.00
-44.00
-38.00
-34.00
-26.00
-22.00
-19.00
-20.00
-19.00
-18.00
-17.00
2.00
17.00
26.00
15.00
10.00
4.00
3.00
-1.00
6.00
8.00
6.00
-8.00
-21.00
-37.00
-44.00
-48.00
-45.00
-45.00
-52.00
-56.00
-56.00
-47.00
-42.00
-58.00
-64.00
-81.00
-139.00
-192.00
-197.00
-143.00
-14.00
175.00
403.00
641.00
728.00
624.00
455.00
299.00
162.00
55.00
-2.00
-26.00
-36.00
-44.00
-56.00
-68.00
-80.00
-77.00
-74.00
-71.00
-72.00
-81.00
-81.00
-81.00
-78.00
-66.00
-67.00
-82.00
-81.00
-76.00
-74.00
-73.00
-73.00
-67.00
-75.00
-80.00
-78.00
-81.00
-79.00
-74.00
-63.00
-68.00
-70.00
-71.00
-72.00
-61.00
-54.00
-51.00
-52.00
-50.00
-46.00
-49.00
-38.00
-28.00
-19.00
-12.00
-14.00
-12.00
-4.00
5.00
10.00
19.00
27.00
32.00
34.00
34.00
32.00
26.00
27.00
20.00
22.00
8.00
8.00
-4.00
-5.00
-10.00
-17.00
-22.00
-14.00
-24.00
-28.00
-30.00
-23.00
-18.00
-18.00
-27.00
-22.00
-25.00
-25.00
-25.00
-29.00
-32.00
-31.00
-33.00
-28.00
-31.00
-33.00
-32.00
-37.00
-38.00
-29.00
-30.00
-27.00
-33.00
-34.00
-33.00
-32.00
-35.00
-30.00
-34.00
-36.00
-25.00
-28.00
-24.00
-29.00
-32.00
-34.00
-27.00
-26.00
-32.00
-28.00
-31.00
-32.00
-32.00
-30.00
-29.00
-30.00
-26.00
-23.00
-30.00
-36.00
-32.00
-43.00
-41.00
-38.00
-25.00
-21.00
-22.00
-30.00
-34.00
-25.00
-26.00
-25.00
-32.00
-32.00
-36.00
-34.00
-34.00
-36.00
-42.00
-32.00
-28.00
-24.00
-24.00
-22.00
-26.00
-25.00
-21.00
-32.00
-34.00
-40.00
-34.00
-22.00
-17.00
-18.00
-18.00
-12.00
-4.00
-10.00
-2.00
-2.00
14.00
18.00
27.00
37.00
38.00
26.00
26.00
22.00
24.00
16.00
11.00
2.00
-6.00
-2.00
-17.00
-22.00
-29.00
-21.00
-24.00
-21.00
-20.00
-26.00
-29.00
-26.00
-36.00
-46.00
-69.00
-124.00
-168.00
-163.00
-75.00
70.00
263.00
481.00
687.00
737.00
603.00
435.00
275.00
139.00
53.00
7.00
-5.00
-10.00
-18.00
-24.00
-28.00
-22.00
-24.00
-35.00
-44.00
-45.00
-38.00
-32.00
-31.00
-29.00
-35.00
-37.00
-31.00
-32.00
-35.00
-38.00
-37.00
-30.00
-34.00
-25.00
-27.00
-28.00
-32.00
-30.00
-22.00
-21.00
-29.00
-32.00
-31.00
-22.00
-23.00
-31.00
-23.00
-17.00
-10.00
-9.00
-7.00
-5.00
-1.00
3.00
7.00
19.00
27.00
38.00
40.00
41.00
50.00
59.00
63.00
64.00
63.00
66.00
75.00
81.00
75.00
68.00
61.00
65.00
51.00
47.00
32.00
24.00
22.00
25.00
18.00
17.00
17.00
14.00
10.00
10.00
8.00
11.00
15.00
20.00
16.00
14.00
16.00
19.00
19.00
23.00
19.00
17.00
11.00
14.00
15.00
18.00
26.00
27.00
23.00
18.00
26.00
30.00
25.00
18.00
19.00
22.00
21.00
11.00
10.00
5.00
10.00
10.00
14.00
10.00
14.00
14.00
18.00
19.00
26.00
22.00
26.00
23.00
26.00
25.00
25.00
25.00
24.00
18.00
20.00
13.00
12.00
21.00
22.00
22.00
28.00
28.00
26.00
27.00
34.00
34.00
42.00
39.00
30.00
22.00
18.00
22.00
15.00
8.00
15.00
22.00
23.00
32.00
39.00
47.00
52.00
43.00
38.00
45.00
47.00
58.00
74.00
79.00
74.00
67.00
71.00
74.00
78.00
69.00
55.00
47.00
51.00
51.00
30.00
13.00
15.00
16.00
13.00
9.00
3.00
7.00
-1.00
6.00
-1.00
-10.00
-37.00
-80.00
-135.00
-151.00
-91.00
51.00
227.00
448.00
674.00
777.00
693.00
521.00
371.00
241.00
137.00
73.00
32.00
27.00
14.00
-1.00
-5.00
-10.00
-10.00
-4.00
-12.00
-20.00
-25.00
-24.00
-26.00
-24.00
-21.00
-20.00
-13.00
-10.00
-10.00
-18.00
-25.00
-30.00
-18.00
-12.00
-24.00
-34.00
-26.00
-25.00
-20.00
-15.00
-23.00
-25.00
-18.00
-18.00
-8.00
-12.00
-9.00
-13.00
-9.00
-13.00
-13.00
-4.00
-1.00
6.00
10.00
23.00
15.00
19.00
30.00
37.00
42.00
47.00
59.00
67.00
62.00
69.00
83.00
79.00
73.00
71.00
71.00
70.00
62.00
47.00
46.00
46.00
47.00
35.00
34.00
29.00
27.00
32.00
19.00
29.00
29.00
11.00
7.00
6.00
11.00
10.00
11.00
18.00
37.00
50.00
64.00
87.00
135.00
205.00
299.00
359.00
403.00
411.00
361.00
171.00
-122.00
-335.00
-411.00
-463.00
-509.00
-527.00
-493.00
-413.00
-299.00
-219.00
-183.00
-169.00
-187.00
-199.00
-212.00
-215.00
-199.00
-171.00
-107.00
-48.00
-1.00
22.00
39.00
42.00
52.00
58.00
65.00
71.00
74.00
79.00
81.00
78.00
91.00
99.00
98.00
99.00
99.00
94.00
99.00
106.00
107.00
107.00
106.00
119.00
123.00
138.00
153.00
182.00
207.00
241.00
273.00
311.00
331.00
347.00
361.00
379.00
397.00
401.00
397.00
397.00
395.00
385.00
371.00
355.00
329.00
309.00
281.00
257.00
226.00
199.00
171.00
144.00
129.00
114.00
105.00
88.00
71.00
58.00
47.00
44.00
40.00
27.00
26.00
32.00
26.00
38.00
34.00
27.00
34.00
30.00
34.00
35.00
27.00
18.00
15.00
22.00
23.00
19.00
19.00
18.00
22.00
15.00
7.00
15.00
7.00
10.00
7.00
15.00
8.00
6.00
6.00
11.00
-1.00
-4.00
6.00
-1.00
-5.00
-2.00
-6.00
-1.00
-1.00
2.00
-9.00
-13.00
-17.00
-10.00
-6.00
-5.00
-10.00
-6.00
-10.00
-6.00
-4.00
-5.00
-7.00
-14.00
-18.00
-24.00
-25.00
-17.00
-19.00
-17.00
-15.00
-12.00
-19.00
-21.00
-21.00
-20.00
-14.00
-23.00
-23.00
-27.00
-17.00
-14.00
-2.00
-7.00
-9.00
-18.00
-19.00
-18.00
-12.00
-4.00
-6.00
-6.00
-7.00
-6.00
-15.00
-14.00
-13.00
-19.00
-18.00
-15.00
-14.00
-18.00
-19.00
-21.00
-14.00
-14.00
-13.00
-17.00
-10.00
-11.00
-9.00
-5.00
-10.00
-17.00
-17.00
-14.00
-9.00
-20.00
-18.00
-15.00
-14.00
-24.00
-32.00
-29.00
-20.00
-18.00
-20.00
-22.00
-29.00
-32.00
-26.00
-25.00
-22.00
-25.00
-28.00
-26.00
-29.00
-30.00
-28.00
-34.00
-39.00
-28.00
-25.00
-30.00
-30.00
-28.00
-35.00
-34.00
-31.00
-28.00
-14.00
-20.00
-17.00
-17.00
-22.00
-30.00
-32.00
-30.00
-26.00
-34.00
-30.00
-30.00
-26.00
-22.00
-22.00
-17.00
-18.00
-18.00
-19.00
-21.00
-26.00
-29.00
-24.00
-21.00
-25.00
-22.00
-24.00
-22.00
-23.00
-17.00
-13.00
-10.00
-18.00
-17.00
-12.00
-8.00
-1.00
-14.00
-6.00
-4.00
2.00
-1.00
11.00
19.00
27.00
27.00
18.00
-1.00
10.00
8.00
2.00
-1.00
-6.00
-25.00
-25.00
-27.00
-37.00
-39.00
-41.00
-34.00
-32.00
-28.00
-22.00
-37.00
-54.00
-91.00
-157.00
-187.00
-161.00
-54.00
103.00
319.00
555.00
717.00
691.00
535.00
387.00
243.00
117.00
46.00
-1.00
-14.00
-26.00
-40.00
-56.00
-57.00
-64.00
-66.00
-70.00
-70.00
-75.00
-72.00
-75.00
-73.00
-74.00
-73.00
-70.00
-69.00
-77.00
-73.00
-70.00
-61.00
-67.00
-66.00
-70.00
-66.00
-66.00
-64.00
-71.00
-66.00
-66.00
-63.00
-66.00
-71.00
-68.00
-82.00
-69.00
-67.00
-68.00
-61.00
-62.00
-52.00
-56.00
-45.00
-43.00
-38.00
-32.00
-30.00
-21.00
-16.00
-14.00
-14.00
-5.00
2.00
8.00
14.00
14.00
19.00
26.00
29.00
19.00
27.00
19.00
10.00
8.00
7.00
-3.00
-6.00
-12.00
-11.00
-13.00
-6.00
-10.00
-18.00
-29.00
-28.00
-15.00
-23.00
-22.00
-29.00
-19.00
-27.00
-21.00
-15.00
-22.00
-32.00
-26.00
-24.00
-22.00
-28.00
-26.00
-30.00
-29.00
-23.00
-25.00
-26.00
-26.00
-25.00
-29.00
-40.00
-37.00
-36.00
-36.00
-36.00
-38.00
-36.00
-32.00
-32.00
-32.00
-32.00
-34.00
-36.00
-37.00
-38.00
-38.00
-35.00
-36.00
-32.00
-38.00
-37.00
-38.00
-39.00
-35.00
-37.00
-36.00
-36.00
-32.00
-37.00
-39.00
-44.00
-39.00
-38.00
-34.00
-26.00
-32.00
-40.00
-39.00
-38.00
-37.00
-40.00
-38.00
-38.00
-31.00
-24.00
-26.00
-27.00
-29.00
-30.00
-10.00
5.00
10.00
9.00
9.00
2.00
-1.00
-1.00
-1.00
-5.00
-10.00
-14.00
-32.00
-38.00
-49.00
-53.00
-46.00
-50.00
-48.00
-45.00
-44.00
-49.00
-51.00
-49.00
-67.00
-100.00
-168.00
-210.00
-194.00
-109.00
32.00
231.00
459.00
657.00
680.00
531.00
381.00
245.00
134.00
50.00
-1.00
-29.00
-34.00
-44.00
-53.00
-64.00
-72.00
-66.00
-80.00
-82.00
-88.00
-90.00
-84.00
-85.00
-90.00
-89.00
-84.00
-84.00
-81.00
-66.00
-68.00
-82.00
-80.00
-79.00
-81.00
-82.00
-81.00
-79.00
-74.00
-70.00
-73.00
-74.00
-70.00
-70.00
-70.00
-64.00
-65.00
-53.00
-68.00
-67.00
-63.00
-54.00
-53.00
-45.00
-46.00
-37.00
-37.00
-30.00
-30.00
-27.00
-22.00
-17.00
-5.00
-1.00
-2.00
-2.00
4.00
9.00
7.00
4.00
6.00
3.00
-5.00
-17.00
-22.00
-34.00
-30.00
-34.00
-32.00
-35.00
-39.00
-38.00
-41.00
-38.00
-34.00
-37.00
-40.00
-46.00
-44.00
-47.00
-50.00
-45.00
-48.00
-45.00
-49.00
-46.00
-47.00
-50.00
-52.00
-56.00
-58.00
-57.00
-45.00
-46.00
-49.00
-54.00
-58.00
-59.00
-57.00
-56.00
-59.00
-58.00
-56.00
-52.00
-53.00
-56.00
-56.00
-54.00
-54.00
-58.00
-47.00
-58.00
-56.00
-62.00
-50.00
-53.00
-58.00
-64.00
-56.00
-57.00
-58.00
-54.00
-55.00
-56.00
-56.00
-49.00
-54.00
-55.00
-56.00
-49.00
-53.00
-50.00
-55.00
-50.00
-56.00
-53.00
-50.00
-53.00
-54.00
-46.00
-49.00
-49.00
-52.00
-48.00
-46.00
-44.00
-37.00
-32.00
-38.00
-49.00
-44.00
-36.00
-20.00
-9.00
-18.00
-17.00
-14.00
-13.00
-18.00
-27.00
-34.00
-26.00
-32.00
-46.00
-49.00
-58.00
-64.00
-70.00
-76.00
-74.00
-68.00
-63.00
-68.00
-66.00
-74.00
-86.00
-118.00
-187.00
-221.00
-200.00
-104.00
48.00
266.00
509.00
681.00
651.00
491.00
339.00
195.00
75.00
3.00
-30.00
-48.00
-56.00
-72.00
-87.00
-92.00
-99.00
-102.00
-102.00
-107.00
-109.00
-107.00
-101.00
-100.00
-102.00
-108.00
-112.00
-113.00
-102.00
-108.00
-104.00
-106.00
-111.00
-114.00
-107.00
-108.00
-106.00
-102.00
-106.00
-108.00
-100.00
-95.00
-98.00
-96.00
-95.00
-91.00
-96.00
-95.00
-89.00
-98.00
-87.00
-93.00
-78.00
-78.00
-68.00
-72.00
-69.00
-66.00
-58.00
-47.00
-45.00
-34.00
-36.00
-26.00
-24.00
-22.00
-14.00
-17.00
-18.00
-25.00
-31.00
-32.00
-42.00
-45.00
-53.00
-44.00
-50.00
-54.00
-60.00
-60.00
-62.00
-63.00
-58.00
-55.00
-65.00
-61.00
-60.00
-58.00
-56.00
-51.00
-54.00
-53.00
-57.00
-58.00
-58.00
-54.00
-60.00
-58.00
-54.00
-52.00
-49.00
-54.00
-52.00
-53.00
-57.00
-54.00
-50.00
-55.00
-54.00
-58.00
-58.00
-56.00
-56.00
-60.00
-54.00
-56.00
-62.00
-58.00
-56.00
-53.00
-44.00
-45.00
-54.00
-49.00
-45.00
-48.00
-52.00
-56.00
-53.00
-46.00
-51.00
-45.00
-58.00
-52.00
-51.00
-50.00
-53.00
-50.00
-42.00
-46.00
-43.00
-50.00
-46.00
-45.00
-48.00
-57.00
-56.00
-52.00
-54.00
-54.00
-46.00
-33.00
-36.00
-49.00
-42.00
-40.00
-38.00
-34.00
-32.00
-32.00
-30.00
-26.00
-8.00
-6.00
-4.00
-5.00
-2.00
-8.00
-10.00
-20.00
-13.00
-20.00
-28.00
-35.00
-45.00
-46.00
-53.00
-54.00
-56.00
-58.00
-62.00
-61.00
-64.00
-62.00
-65.00
-75.00
-106.00
-140.00
-192.00
-204.00
-149.00
-20.00
163.00
393.00
624.00
725.00
627.00
458.00
312.00
179.00
87.00
22.00
-17.00
-29.00
-45.00
-62.00
-70.00
-72.00
-72.00
-78.00
-81.00
-82.00
-86.00
-89.00
-86.00
-86.00
-87.00
-85.00
-90.00
-95.00
-90.00
-94.00
-88.00
-88.00
-85.00
-94.00
-94.00
-90.00
-89.00
-91.00
-87.00
-89.00
-84.00
-81.00
-81.00
-82.00
-77.00
-65.00
-61.00
-60.00
-69.00
-66.00
-59.00
-60.00
-50.00
-44.00
-45.00
-37.00
-29.00
-29.00
-42.00
-31.00
-24.00
-17.00
-10.00
-5.00
-2.00
3.00
-1.00
-5.00
-4.00
-1.00
-6.00
-13.00
-20.00
-25.00
-22.00
-34.00
-41.00
-40.00
-42.00
-46.00
-42.00
-42.00
-41.00
-40.00
-42.00
-43.00
-38.00
-40.00
-42.00
-38.00
-42.00
-41.00
-39.00
-49.00
-46.00
-46.00
-44.00
-42.00
-42.00
-46.00
-47.00
-51.00
-45.00
-49.00
-38.00
-48.00
-40.00
-38.00
-36.00
-34.00
-46.00
-40.00
-37.00
-40.00
-36.00
-42.00
-38.00
-32.00
-34.00
-42.00
-42.00
-46.00
-41.00
-31.00
-32.00
-34.00
-32.00
-36.00
-46.00
-42.00
-46.00
-46.00
-38.00
-38.00
-38.00
-38.00
-37.00
-32.00
-32.00
-36.00
-38.00
-38.00
-40.00
-38.00
-36.00
-34.00
-38.00
-32.00
-35.00
-33.00
-22.00
-28.00
-29.00
-33.00
-32.00
-27.00
-18.00
-17.00
-10.00
-13.00
-21.00
-14.00
-17.00
-1.00
14.00
22.00
24.00
14.00
7.00
11.00
11.00
10.00
-2.00
-9.00
-12.00
-18.00
-25.00
-28.00
-32.00
-31.00
-27.00
-32.00
-38.00
-32.00
-34.00
-32.00
-44.00
-71.00
-114.00
-172.00
-179.00
-136.00
-10.00
160.00
381.00
617.00
729.00
645.00
483.00
343.00
221.00
127.00
47.00
10.00
-5.00
-22.00
-38.00
-49.00
-58.00
-62.00
-64.00
-61.00
-72.00
-74.00
-73.00
-84.00
-74.00
-82.00
-78.00
-81.00
-77.00
-76.00
-74.00
-76.00
-85.00
-78.00
-81.00
-83.00
-78.00
-58.00
-62.00
-62.00
-68.00
-77.00
-78.00
-81.00
-77.00
-74.00
-67.00
-69.00
-70.00
-70.00
-76.00
-70.00
-64.00
-64.00
-63.00
-56.00
-49.00
-37.00
-34.00
-36.00
-30.00
-29.00
-22.00
-20.00
-14.00
-6.00
4.00
10.00
11.00
6.00
7.00
-1.00
-1.00
-6.00
-14.00
-22.00
-22.00
-28.00
-30.00
-35.00
-38.00
-38.00
-34.00
-41.00
-40.00
-42.00
-42.00
-39.00
-42.00
-51.00
-46.00
-41.00
-42.00
-42.00
-45.00
-49.00
-53.00
-52.00
-54.00
-52.00
-54.00
-53.00
-50.00
-48.00
-49.00
-46.00
-46.00
-52.00
-54.00
-53.00
-52.00
-49.00
-42.00
-41.00
-49.00
-49.00
-52.00
-50.00
-42.00
-53.00
-46.00
-52.00
-51.00
-53.00
-52.00
-49.00
-46.00
-47.00
-47.00
-58.00
-47.00
-49.00
-49.00
-49.00
-47.00
-46.00
-42.00
-42.00
-46.00
-41.00
-42.00
-46.00
-52.00
-54.00
-54.00
-49.00
-47.00
-44.00
-46.00
-55.00
-53.00
-46.00
-50.00
-50.00
-54.00
-49.00
-49.00
-43.00
-38.00
-34.00
-32.00
-28.00
-34.00
-30.00
-32.00
-22.00
-5.00
6.00
14.00
10.00
3.00
-4.00
-1.00
-5.00
-6.00
-11.00
-17.00
-25.00
-37.00
-54.00
-56.00
-49.00
-56.00
-54.00
-54.00
-53.00
-52.00
-56.00
-63.00
-66.00
-90.00
-132.00
-178.00
-192.00
-134.00
-2.00
174.00
403.00
631.00
712.00
593.00
425.00
280.00
153.00
71.00
1.00
-22.00
-34.00
-45.00
-57.00
-64.00
-70.00
-73.00
-78.00
-82.00
-78.00
-84.00
-76.00
-79.00
-67.00
-78.00
-81.00
-77.00
-78.00
-81.00
-83.00
-85.00
-77.00
-77.00
-77.00
-83.00
-72.00
-61.00
-64.00
-62.00
-73.00
-64.00
-62.00
-74.00
-57.00
-62.00
-61.00
-59.00
-57.00
-69.00
-66.00
-63.00
-64.00
-56.00
-51.00
-44.00
-42.00
-41.00
-34.00
-23.00
-20.00
-17.00
-11.00
-1.00
7.00
11.00
20.00
19.00
19.00
11.00
3.00
-1.00
-6.00
-12.00
-17.00
-26.00
-22.00
-29.00
-30.00
-35.00
-32.00
-31.00
-33.00
-34.00
-30.00
-34.00
-34.00
-37.00
-41.00
-41.00
-42.00
-43.00
-46.00
-43.00
-42.00
-37.00
-44.00
-48.00
-43.00
-42.00
-45.00
-35.00
-47.00
-42.00
-42.00
-42.00
-50.00
-50.00
-46.00
-51.00
-47.00
-41.00
-47.00
-44.00
-49.00
-55.00
-42.00
-38.00
-36.00
-41.00
-45.00
-40.00
-38.00
-37.00
-42.00
-42.00
-52.00
-46.00
-44.00
-42.00
-43.00
-49.00
-53.00
-54.00
-52.00
-53.00
-49.00
-46.00
-46.00
-44.00
-54.00
-52.00
-49.00
-44.00
-46.00
-43.00
-46.00
-46.00
-43.00
-49.00
-50.00
-53.00
-45.00
-42.00
-42.00
-42.00
-38.00
-46.00
-46.00
-46.00
-46.00
-50.00
-42.00
-46.00
-41.00
-22.00
-26.00
-30.00
-29.00
-30.00
-21.00
-5.00
5.00
-4.00
-1.00
-9.00
-6.00
-5.00
-9.00
-2.00
-9.00
-6.00
-22.00
-29.00
-38.00
-40.00
-32.00
-43.00
-42.00
-42.00
-46.00
-44.00
-51.00
-50.00
-62.00
-82.00
-117.00
-177.00
-197.00
-148.00
-25.00
139.00
357.00
599.00
743.00
677.00
504.00
351.00
217.00
110.00
38.00
-1.00
-19.00
-41.00
-55.00
-69.00
-70.00
-70.00
-78.00
-82.00
-78.00
-81.00
-81.00
-77.00
-79.00
-81.00
-83.00
-78.00
-74.00
-74.00
-70.00
-71.00
-69.00
-68.00
-65.00
-78.00
-74.00
-77.00
-81.00
-75.00
-74.00
-61.00
-66.00
-73.00
-74.00
-74.00
-76.00
-61.00
-61.00
-60.00
-60.00
-56.00
-50.00
-54.00
-44.00
-42.00
-37.00
-36.00
-35.00
-27.00
-21.00
-18.00
-14.00
-10.00
-1.00
10.00
16.00
19.00
22.00
9.00
7.00
-1.00
2.00
-16.00
-18.00
-26.00
-20.00
-20.00
-21.00
-30.00
-27.00
-31.00
-35.00
-27.00
-25.00
-21.00
-28.00
-32.00
-34.00
-25.00
-30.00
-30.00
-34.00
-32.00
-36.00
-32.00
-30.00
-43.00
-42.00
-39.00
-34.00
-35.00
-34.00
-36.00
-41.00
-41.00
-40.00
-39.00
-40.00
-34.00
-36.00
-38.00
-41.00
-38.00
-32.00
-42.00
-34.00
-38.00
-40.00
-42.00
-42.00
-43.00
-41.00
-40.00
-47.00
-40.00
-41.00
-36.00
-41.00
-29.00
-34.00
-38.00
-42.00
-36.00
-22.00
-32.00
-32.00
-36.00
-33.00
-38.00
-32.00
-32.00
-38.00
-38.00
-37.00
-43.00
-41.00
-38.00
-36.00
-32.00
-39.00
-35.00
-38.00
-30.00
-37.00
-27.00
-34.00
-31.00
-30.00
-25.00
-30.00
-36.00
-35.00
-32.00
-38.00
-40.00
-34.00
-34.00
-30.00
-24.00
-23.00
-20.00
-18.00
-16.00
-13.00
-17.00
-15.00
3.00
18.00
18.00
16.00
17.00
3.00
4.00
-1.00
-5.00
-12.00
-11.00
-14.00
-25.00
-34.00
-32.00
-38.00
-46.00
-48.00
-48.00
-49.00
-52.00
-48.00
-48.00
-58.00
-69.00
-105.00
-165.00
-200.00
-195.00
-108.00
38.00
235.00
473.00
682.00
738.00
614.00
457.00
327.00
199.00
109.00
38.00
-1.00
-18.00
-31.00
-52.00
-66.00
-70.00
-70.00
-76.00
-78.00
-86.00
-81.00
-76.00
-82.00
-82.00
-82.00
-85.00
-87.00
-84.00
-85.00
-82.00
-83.00
-88.00
-79.00
-82.00
-86.00
-88.00
-84.00
-90.00
-80.00
-70.00
-72.00
-72.00
-69.00
-67.00
-76.00
-65.00
-60.00
-61.00
-59.00
-57.00
-54.00
-54.00
-58.00
-54.00
-44.00
-41.00
-41.00
-50.00
-44.00
-32.00
-22.00
-18.00
-14.00
-14.00
-12.00
-7.00
-1.00
7.00
10.00
7.00
6.00
3.00
-4.00
-6.00
-12.00
-18.00
-20.00
-22.00
-21.00
-30.00
-32.00
-31.00
-37.00
-44.00
-40.00
-40.00
-44.00
-44.00
-40.00
-30.00
-35.00
-38.00
-42.00
-50.00
-45.00
-46.00
-46.00
-42.00
-41.00
-37.00
-47.00
-32.00
-48.00
-46.00
-45.00
-42.00
-46.00
-36.00
-29.00
-44.00
-45.00
-41.00
-32.00
-48.00
-45.00
-34.00
-38.00
-49.00
-42.00
-45.00
-41.00
-44.00
-50.00
-49.00
-44.00
-44.00
-44.00
-44.00
-44.00
-45.00
-42.00
-44.00
-45.00
-46.00
-42.00
-46.00
-42.00
-44.00
-42.00
-40.00
-38.00
-46.00
-52.00
-45.00
-46.00
-40.00
-35.00
-33.00
-30.00
-36.00
-45.00
-45.00
-41.00
-32.00
-28.00
-29.00
-36.00
-32.00
-30.00
-32.00
-30.00
-22.00
-23.00
-21.00
-30.00
-30.00
-29.00
-25.00
-22.00
-16.00
-6.00
-18.00
-18.00
-5.00
4.00
13.00
22.00
13.00
7.00
6.00
3.00
-1.00
2.00
-9.00
-22.00
-29.00
-32.00
-40.00
-34.00
-38.00
-45.00
-46.00
-38.00
-41.00
-45.00
-42.00
-45.00
-75.00
-104.00
-160.00
-192.00
-157.00
-39.00
130.00
331.00
575.00
735.00
681.00
507.00
352.00
203.00
79.00
22.00
-15.00
-17.00
-30.00
-37.00
-53.00
-58.00
-60.00
-66.00
-62.00
-64.00
-69.00
-69.00
-74.00
-70.00
-77.00
-74.00
-70.00
-71.00
-72.00
-69.00
-66.00
-70.00
-74.00
-81.00
-71.00
-73.00
-78.00
-65.00
-66.00
-66.00
-61.00
-59.00
-58.00
-58.00
-54.00
-59.00
-52.00
-52.00
-50.00
-46.00
-41.00
-37.00
-24.00
-18.00
-14.00
-9.00
-6.00
-7.00
-6.00
-1.00
16.00
27.00
34.00
39.00
47.00
42.00
50.00
51.00
47.00
40.00
41.00
33.00
26.00
22.00
15.00
3.00
5.00
10.00
6.00
6.00
1.00
-6.00
-6.00
-7.00
-1.00
5.00
2.00
-2.00
-10.00
-1.00
-4.00
-6.00
-1.00
-1.00
-7.00
-4.00
2.00
-2.00
-6.00
-2.00
-1.00
2.00
-1.00
-2.00
-8.00
-6.00
2.00
6.00
5.00
2.00
3.00
3.00
6.00
4.00
6.00
15.00
11.00
10.00
18.00
7.00
11.00
10.00
11.00
10.00
10.00
10.00
10.00
3.00
6.00
2.00
7.00
10.00
6.00
6.00
9.00
10.00
3.00
11.00
14.00
15.00
6.00
10.00
8.00
18.00
14.00
10.00
11.00
15.00
6.00
12.00
7.00
6.00
10.00
14.00
10.00
10.00
2.00
6.00
10.00
10.00
21.00
22.00
26.00
23.00
35.00
34.00
39.00
39.00
42.00
58.00
58.00
63.00
68.00
71.00
66.00
67.00
66.00
62.00
62.00
54.00
54.00
42.00
31.00
15.00
10.00
19.00
18.00
14.00
14.00
5.00
6.00
3.00
-1.00
3.00
-6.00
-24.00
-86.00
-145.00
-137.00
-36.00
118.00
309.00
544.00
741.00
749.00
600.00
417.00
263.00
146.00
71.00
38.00
10.00
11.00
8.00
-6.00
-2.00
-4.00
-6.00
-5.00
-22.00
-17.00
-20.00
-26.00
-17.00
-22.00
-25.00
-13.00
-12.00
-18.00
-21.00
-14.00
-12.00
-10.00
-14.00
-9.00
-11.00
-10.00
-12.00
-13.00
-6.00
-6.00
-1.00
3.00
-1.00
5.00
-7.00
-2.00
-2.00
-6.00
6.00
5.00
4.00
13.00
28.00
23.00
22.00
32.00
38.00
57.00
59.00
64.00
71.00
67.00
67.00
74.00
83.00
72.00
75.00
65.00
66.00
59.00
57.00
54.00
51.00
40.00
23.00
19.00
19.00
19.00
15.00
14.00
14.00
22.00
16.00
14.00
12.00
14.00
7.00
14.00
12.00
10.00
5.00
11.00
8.00
-1.00
2.00
14.00
14.00
7.00
10.00
14.00
11.00
11.00
9.00
13.00
10.00
15.00
11.00
14.00
11.00
15.00
13.00
15.00
22.00
23.00
15.00
17.00
26.00
19.00
18.00
17.00
11.00
10.00
14.00
18.00
22.00
21.00
14.00
14.00
13.00
12.00
11.00
3.00
17.00
14.00
11.00
13.00
10.00
7.00
18.00
20.00
9.00
9.00
7.00
8.00
10.00
11.00
10.00
7.00
14.00
12.00
10.00
14.00
19.00
14.00
10.00
11.00
15.00
10.00
25.00
23.00
27.00
29.00
27.00
42.00
54.00
64.00
63.00
63.00
57.00
54.00
55.00
51.00
50.00
38.00
32.00
22.00
22.00
9.00
-1.00
-6.00
-5.00
-13.00
-10.00
-2.00
-2.00
-5.00
-6.00
-14.00
-30.00
-72.00
-123.00
-158.00
-113.00
8.00
171.00
385.00
619.00
753.00
691.00
527.00
367.00
224.00
106.00
41.00
14.00
-1.00
-5.00
-13.00
-14.00
-22.00
-25.00
-30.00
-34.00
-38.00
-40.00
-46.00
-46.00
-40.00
-45.00
-39.00
-37.00
-20.00
-29.00
-46.00
-49.00
-26.00
-27.00
-42.00
-34.00
-22.00
-25.00
-18.00
-15.00
-22.00
-22.00
-17.00
-32.00
-39.00
-45.00
-45.00
-26.00
-24.00
-30.00
-28.00
-25.00
-24.00
-12.00
-11.00
3.00
9.00
15.00
18.00
18.00
23.00
30.00
38.00
42.00
46.00
36.00
47.00
51.00
54.00
50.00
45.00
46.00
39.00
27.00
23.00
15.00
10.00
8.00
10.00
2.00
-1.00
6.00
6.00
-1.00
-7.00
-6.00
-8.00
-14.00
-11.00
-10.00
-14.00
-13.00
-12.00
-6.00
-9.00
-11.00
-7.00
-4.00
-6.00
-16.00
-12.00
-18.00
-17.00
-2.00
-4.00
-16.00
-9.00
-10.00
-11.00
-9.00
-7.00
-13.00
-6.00
-9.00
-5.00
-6.00
-2.00
-4.00
-4.00
-12.00
-14.00
-10.00
-6.00
-1.00
-1.00
-9.00
-13.00
-18.00
-14.00
-6.00
-1.00
-6.00
-1.00
-1.00
-5.00
-24.00
-22.00
-21.00
-18.00
-21.00
-21.00
-22.00
-14.00
-8.00
-12.00
-13.00
-15.00
-10.00
-10.00
-6.00
-9.00
-7.00
-14.00
-10.00
-10.00
-2.00
-1.00
-2.00
-1.00
-1.00
-2.00
-2.00
6.00
14.00
12.00
13.00
14.00
27.00
40.00
39.00
35.00
35.00
33.00
32.00
34.00
34.00
34.00
24.00
17.00
8.00
-3.00
-17.00
-14.00
-20.00
-21.00
-14.00
-10.00
-13.00
-18.00
-22.00
-26.00
-40.00
-59.00
-119.00
-153.00
-147.00
-54.00
91.00
267.00
489.00
691.00
741.00
605.00
437.00
285.00
155.00
64.00
21.00
-3.00
-13.00
-18.00
-22.00
-28.00
-33.00
-34.00
-46.00
-30.00
-42.00
-34.00
-36.00
-29.00
-37.00
-52.00
-47.00
-52.00
-43.00
-37.00
-37.00
-26.00
-30.00
-32.00
-37.00
-31.00
-41.00
-38.00
-32.00
-26.00
-28.00
-30.00
-30.00
-22.00
-24.00
-25.00
-18.00
-15.00
-13.00
-13.00
-12.00
-12.00
-9.00
-5.00
-14.00
-4.00
8.00
10.00
9.00
19.00
24.00
32.00
41.00
50.00
55.00
51.00
52.00
55.00
62.00
54.00
55.00
48.00
43.00
34.00
28.00
22.00
20.00
14.00
11.00
7.00
14.00
11.00
4.00
6.00
3.00
-6.00
-1.00
6.00
6.00
4.00
-1.00
2.00
8.00
1.00
-1.00
-5.00
-10.00
-1.00
9.00
3.00
4.00
5.00
3.00
7.00
-4.00
-6.00
-6.00
-6.00
-6.00
7.00
11.00
14.00
11.00
-5.00
-6.00
-2.00
10.00
11.00
-8.00
-6.00
-6.00
-1.00
-1.00
-8.00
-6.00
-10.00
-3.00
-3.00
-12.00
-6.00
-7.00
-10.00
-6.00
-10.00
-8.00
-7.00
-1.00
-4.00
-8.00
-14.00
-17.00
-24.00
-16.00
-10.00
-8.00
-10.00
-10.00
-6.00
-8.00
-1.00
4.00
-1.00
2.00
-9.00
-2.00
-10.00
-6.00
-4.00
-10.00
-6.00
2.00
-1.00
3.00
4.00
13.00
13.00
13.00
10.00
6.00
8.00
15.00
35.00
43.00
43.00
40.00
35.00
39.00
32.00
26.00
26.00
19.00
22.00
8.00
3.00
-6.00
-11.00
-13.00
-7.00
-11.00
-13.00
-17.00
-22.00
-22.00
-24.00
-27.00
-52.00
-97.00
-152.00
-167.00
-118.00
7.00
174.00
387.00
616.00
730.00
639.00
472.00
329.00
195.00
94.00
38.00
2.00
-5.00
-8.00
-26.00
-34.00
-44.00
-44.00
-43.00
-49.00
-52.00
-59.00
-63.00
-60.00
-53.00
-52.00
-58.00
-46.00
-49.00
-44.00
-46.00
-50.00
-49.00
-50.00
-44.00
-59.00
-59.00
-54.00
-62.00
-61.00
-45.00
-43.00
-41.00
-40.00
-37.00
-46.00
-42.00
-34.00
-32.00
-34.00
-32.00
-29.00
-26.00
-29.00
-20.00
-14.00
-23.00
-14.00
-10.00
-1.00
-1.00
0.00
11.00
14.00
20.00
20.00
20.00
22.00
28.00
26.00
26.00
30.00
24.00
14.00
3.00
-4.00
-1.00
-11.00
-13.00
-17.00
-13.00
-14.00
-20.00
-25.00
-27.00
-26.00
-28.00
-30.00
-30.00
-32.00
-32.00
-37.00
-36.00
-35.00
-31.00
-33.00
-35.00
-35.00
-31.00
-31.00
-38.00
-36.00
-37.00
-30.00
-30.00
-31.00
-21.00
-14.00
-22.00
-26.00
-31.00
-30.00
-22.00
-17.00
-18.00
-21.00
-12.00
-18.00
-18.00
-18.00
-21.00
-21.00
-22.00
-18.00
-17.00
-28.00
-30.00
-29.00
-24.00
-37.00
-42.00
-38.00
-37.00
-38.00
-36.00
-35.00
-34.00
-27.00
-30.00
-38.00
-42.00
-38.00
-29.00
-33.00
-29.00
-29.00
-29.00
-23.00
-32.00
-37.00
-32.00
-34.00
-31.00
-38.00
-39.00
-38.00
-42.00
-32.00
-26.00
-32.00
-28.00
-32.00
-25.00
-25.00
-22.00
-17.00
-17.00
-18.00
-16.00
-17.00
-14.00
-1.00
9.00
15.00
15.00
11.00
7.00
10.00
7.00
6.00
4.00
-5.00
-7.00
-9.00
-17.00
-22.00
-33.00
-38.00
-34.00
-40.00
-45.00
-48.00
-44.00
-42.00
-48.00
-53.00
-81.00
-119.00
-170.00
-202.00
-160.00
-49.00
118.00
311.00
531.00
705.00
687.00
521.00
365.00
225.00
107.00
30.00
-8.00
-35.00
-42.00
-48.00
-56.00
-57.00
-61.00
-74.00
-79.00
-81.00
-81.00
-74.00
-80.00
-74.00
-81.00
-88.00
-80.00
-74.00
-80.00
-91.00
-99.00
-101.00
-91.00
-85.00
-78.00
-88.00
-93.00
-94.00
-91.00
-91.00
-82.00
-81.00
-77.00
-82.00
-82.00
-74.00
-82.00
-80.00
-70.00
-74.00
-72.00
-64.00
-62.00
-71.00
-63.00
-59.00
-49.00
-40.00
-34.00
-26.00
-24.00
-32.00
-26.00
-21.00
-12.00
-2.00
4.00
5.00
11.00
-1.00
2.00
-2.00
-6.00
-10.00
-2.00
-8.00
-26.00
-30.00
-39.00
-38.00
-38.00
-32.00
-37.00
-40.00
-42.00
-42.00
-41.00
-34.00
-37.00
-35.00
-38.00
-38.00
-42.00
-38.00
-40.00
-38.00
-37.00
-25.00
-14.00
8.00
46.00
107.00
200.00
283.00
352.00
387.00
375.00
251.00
-41.00
-328.00
-481.00
-551.00
-603.00
-623.00
-601.00
-519.00
-409.00
-317.00
-257.00
-235.00
-241.00
-263.00
-267.00
-281.00
-271.00
-253.00
-202.00
-142.00
-82.00
-52.00
-30.00
-13.00
-6.00
-2.00
6.00
8.00
12.00
18.00
18.00
26.00
34.00
34.00
43.00
32.00
27.00
27.00
35.00
44.00
47.00
60.00
62.00
67.00
74.00
94.00
123.00
151.00
163.00
213.00
257.00
279.00
298.00
311.00
331.00
344.00
347.00
355.00
361.00
363.00
355.00
344.00
327.00
303.00
271.00
240.00
219.00
189.00
163.00
139.00
111.00
87.00
64.00
54.00
32.00
18.00
3.00
-1.00
-4.00
-10.00
-17.00
-17.00
-17.00
-18.00
-18.00
-18.00
-13.00
-1.00
-3.00
-2.00
-1.00
-6.00
-1.00
-4.00
-1.00
-7.00
-5.00
-2.00
-5.00
-12.00
-11.00
-7.00
-12.00
-18.00
-24.00
-34.00
-33.00
-39.00
-40.00
-41.00
-37.00
-18.00
-29.00
-30.00
-34.00
-54.00
-56.00
-45.00
-45.00
-45.00
-46.00
-50.00
-46.00
-49.00
-58.00
-52.00
-46.00
-56.00
-58.00
-50.00
-49.00
-49.00
-56.00
-63.00
-59.00
-64.00
-58.00
-49.00
-51.00
-54.00
-62.00
-56.00
-54.00
-54.00
-50.00
-59.00
-58.00
-55.00
-63.00
-64.00
-61.00
-56.00
-53.00
-58.00
-53.00
-58.00
-60.00
-62.00
-58.00
-61.00
-61.00
-62.00
-66.00
-56.00
-54.00
-62.00
-66.00
-64.00
-61.00
-61.00
-60.00
-61.00
-55.00
-58.00
-55.00
-64.00
-71.00
-71.00
-66.00
-62.00
-65.00
-66.00
-59.00
-71.00
-67.00
-74.00
-74.00
-73.00
-72.00
-64.00
-67.00
-70.00
-73.00
-72.00
-66.00
-64.00
-61.00
-52.00
-54.00
-62.00
-70.00
-68.00
-64.00
-66.00
-60.00
-62.00
-54.00
-60.00
-60.00
-62.00
-64.00
-62.00
-58.00
-54.00
-54.00
-52.00
-60.00
-58.00
-54.00
-53.00
-58.00
-62.00
-60.00
-68.00
-70.00
-67.00
-58.00
-69.00
-69.00
-70.00
-62.00
-62.00
-64.00
-62.00
-63.00
-61.00
-63.00
-60.00
-60.00
-62.00
-58.00
-61.00
-58.00
-63.00
-65.00
-64.00
-54.00
-50.00
-51.00
-51.00
-49.00
-47.00
-51.00
-42.00
-48.00
-46.00
-47.00
-35.00
-32.00
-28.00
-39.00
-50.00
-36.00
-20.00
-14.00
-6.00
-16.00
-16.00
-17.00
-18.00
-26.00
-30.00
-36.00
-53.00
-61.00
-56.00
-54.00
-54.00
-64.00
-76.00
-66.00
-68.00
-86.00
-88.00
-112.00
-152.00
-204.00
-216.00
-158.00
-32.00
155.00
392.00
611.00
675.00
552.00
393.00
257.00
125.00
24.00
-20.00
-54.00
-64.00
-69.00
-74.00
-77.00
-82.00
-81.00
-90.00
-84.00
-86.00
-81.00
-78.00
-84.00
-96.00
-113.00
-102.00
-100.00
-102.00
-100.00
-109.00
-100.00
-93.00
-94.00
-93.00
-88.00
-88.00
-86.00
-85.00
-82.00
-69.00
-62.00
-86.00
-86.00
-84.00
-66.00
-62.00
-64.00
-81.00
-74.00
-62.00
-71.00
-70.00
-67.00
-74.00
-72.00
-55.00
-43.00
-46.00
-49.00
-45.00
-32.00
-35.00
-33.00
-26.00
-12.00
-7.00
3.00
14.00
22.00
18.00
2.00
3.00
-6.00
-17.00
-17.00
-19.00
-37.00
-48.00
-49.00
-42.00
-53.00
-63.00
-70.00
-74.00
-58.00
-36.00
-20.00
-22.00
-26.00
-28.00
-36.00
-34.00
-32.00
-40.00
-41.00
-42.00
-49.00
-54.00
-56.00
-62.00
-60.00
-56.00
-56.00
-49.00
-44.00
-38.00
-42.00
-49.00
-50.00
-46.00
-36.00
-29.00
-30.00
-44.00
-54.00
-62.00
-60.00
-54.00
-55.00
-60.00
-64.00
-64.00
-71.00
-69.00
-60.00
-64.00
-60.00
-70.00
-64.00
-64.00
-59.00
-60.00
-64.00
-70.00
-78.00
-78.00
-68.00
-68.00
-77.00
-86.00
-90.00
-69.00
-81.00
-86.00
-82.00
-54.00
-49.00
-58.00
-69.00
-62.00
-63.00
-62.00
-53.00
-52.00
-58.00
-56.00
-45.00
-32.00
-29.00
-18.00
-13.00
-21.00
-20.00
-10.00
-27.00
-58.00
-76.00
-86.00
-98.00
-85.00
-72.00
-70.00
-74.00
-74.00
-77.00
-93.00
-98.00
-104.00
-114.00
-114.00
-126.00
-174.00
-215.00
-216.00
-146.00
-1.00
167.00
385.00
593.00
667.00
533.00
339.00
183.00
46.00
-37.00
-74.00
-90.00
-91.00
-90.00
-94.00
-100.00
-115.00
-120.00
-118.00
-111.00
-114.00
-126.00
-130.00
-115.00
-115.00
-115.00
-113.00
-112.00
-104.00
-89.00
-101.00
-127.00
-130.00
-111.00
-106.00
-120.00
-120.00
-103.00
-111.00
-123.00
-103.00
-90.00
-95.00
-91.00
-103.00
-98.00
-74.00
-82.00
-84.00
-76.00
-81.00
-98.00
-75.00
-69.00
-81.00
-68.00
-59.00
-50.00
-46.00
-50.00
-44.00
-33.00
-19.00
-13.00
-16.00
-26.00
-22.00
-24.00
-25.00
-22.00
-10.00
-18.00
-45.00
-52.00
-46.00
-49.00
-62.00
-62.00
-74.00
-59.00
-64.00
-77.00
-79.00
-76.00
-70.00
-69.00
-84.00
-72.00
-64.00
-60.00
-72.00
-76.00
-72.00
-68.00
-84.00
-88.00
-87.00
-86.00
-94.00
-82.00
-69.00
-58.00
-58.00
-78.00
-86.00
-78.00
-84.00
-81.00
-60.00
-76.00
-78.00
-67.00
-68.00
-89.00
-75.00
-63.00
-49.00
-46.00
-54.00
-50.00
-45.00
-97.00
-127.00
-106.00
-66.00
-53.00
-66.00
-82.00
-72.00
-56.00
-64.00
-75.00
-71.00
-70.00
-70.00
-78.00
-64.00
-68.00
-84.00
-78.00
-62.00
-42.00
-50.00
-81.00
-89.00
-94.00
-98.00
-102.00
-76.00
-63.00
-76.00
-77.00
-60.00
-64.00
-81.00
-88.00
-74.00
-62.00
-77.00
-82.00
-65.00
-39.00
-48.00
-60.00
-49.00
-41.00
-51.00
-61.00
-50.00
-35.00
-51.00
-58.00
-52.00
-38.00
-38.00
-29.00
-30.00
-52.00
-79.00
-89.00
-91.00
-89.00
-87.00
-88.00
-83.00
-92.00
-90.00
-83.00
-86.00
-94.00
-119.00
-167.00
-213.00
-223.00
-172.00
-40.00
151.00
383.00
597.00
687.00
600.00
417.00
235.00
91.00
8.00
-34.00
-65.00
-81.00
-90.00
-94.00
-118.00
-129.00
-130.00
-126.00
-128.00
-130.00
-124.00
-118.00
-109.00
-155.00
-158.00
-130.00
-110.00
-120.00
-113.00
-110.00
-130.00
-148.00
-130.00
-116.00
-129.00
-143.00
-132.00
-122.00
-130.00
-156.00
-133.00
-113.00
-123.00
-143.00
-118.00
-110.00
-116.00
-130.00
