ECG
29106
31290
30599
30510
30596
30184
30110
30507
30842
29262
29195
28581
28866
27704
27631
28077
28865
29116
29582
30610
29515
30511
28155
29181
29144
29457
28407
28485
28253
27618
27972
27435
27866
27143
29065
28660
29823
28372
30387
28556
29680
29591
28239
28796
27180
29441
26622
27971
27648
29226
28108
30131
29096
29830
29529
28271
27454
29910
29205
29123
28186
29211
28025
28683
26556
29093
27063
30488
28765
31340
28768
28768
31460
28840
30929
29449
30878
28059
29704
28508
29162
27025
30832
28713
29605
29255
30436
29338
30786
27694
32086
29700
31834
28520
30085
28966
29922
28388
29436
28622
29419
30123
30953
30774
30134
31138
31519
30166
30311
30139
29677
28924
29599
28801
31452
30481
29714
29456
31214
30560
31255
31042
32123
32277
31334
32186
30404
30442
29239
30346
29127
30105
30018
30031
30359
31664
31467
31584
32286
33362
30330
32208
32031
32028
31205
31829
30582
33905
29508
31988
29702
33094
31665
32876
31599
34066
31919
33518
32199
32558
30922
31699
31309
31503
29862
32627
31250
33198
32356
34384
32129
34717
30284
32423
32399
34488
31615
33226
31509
32546
30613
31230
31334
31922
32858
33232
33900
34040
34370
33892
33877
34296
33863
32903
32591
33034
31562
31577
33558
33182
32183
34001
33648
33874
33868
32428
34967
34140
35173
33532
33667
33873
33735
33180
33180
33795
33458
33472
34831
35536
36021
34680
36305
35906
34996
35719
35914
35048
34930
35273
34143
34774
34600
35144
34085
35880
35702
35725
35767
34937
35938
36408
36894
35527
35364
35221
35590
34497
34735
35148
35274
35932
36042
37286
35766
36924
35487
36183
35778
36686
35560
35464
35643
34843
35943
35493
34873
34712
35689
35696
35787
35470
36804
35686
35838
36308
34853
34567
33127
34750
32874
33412
33845
33050
33129
34194
33854
33712
34296
33836
34039
32916
33627
32067
32419
32124
31774
32626
31359
31178
30081
31954
31994
32012
31159
32549
31832
31322
31076
30527
30451
28989
30426
28734
29725
29580
29623
28967
30087
30000
29694
30832
29268
29622
29639
30449
28974
29316
28485
29264
27167
28541
28139
27534
28477
29339
29862
28605
29636
29606
28546
29278
29275
28498
28061
29064
27267
27730
27685
28649
26855
29205
28289
28687
28435
27760
28550
28550
28994
29349
28632
27919
28130
28343
27080
27142
27839
27483
28906
28701
30300
28764
30241
28650
29102
28573
29332
27599
28248
28160
27326
28523
28577
27497
27532
28471
28996
29055
28920
29681
29407
29855
29230
28656
27774
28156
28083
27430
26540
28734
27938
28970
28433
30245
28340
30420
26486
28923
28311
29970
27327
28967
27633
28321
26621
27590
26973
27504
28291
29576
29413
29837
29843
29539
28497
30010
28199
28316
27113
28415
26627
27366
28362
28657
26993
29075
28117
29121
28668
27827
30185
29181
29731
28366
28347
28795
28577
28108
28323
27928
27875
29250
29225
29821
29184
30710
30605
29356
29037
28883
29042
27538
28823
27148
30419
28796
29045
27760
29856
28608
29599
29312
30104
30012
29866
29727
28763
28366
28525
27939
27428
28318
29101
27498
29643
28868
30301
28733
30770
29951
28983
28898
30718
28039
29343
28166
29292
29475
28240
28266
28266
28527
28878
30172
28453
30822
29575
30794
28656
31107
27732
29678
27436
30039
26738
28523
27943
29991
28387
30290
29491
30411
29995
28657
28346
30487
29633
29425
28492
29493
28488
28967
27288
29053
27495
30044
29442
30694
29624
31210
29448
30095
30273
29525
28742
28253
28564
27863
27583
29398
28528
27950
29301
29039
29357
29475
27928
30755
29448
30278
28696
28702
28631
28423
28451
28326
28583
28072
29219
30021
30654
29845
30321
30604
29351
30530
29411
29288
28389
29492
27502
28566
28414
29874
28046
30788
29099
30328
29041
29339
29520
30729
30373
29788
28727
29507
28902
29026
28146
29088
28382
30261
29322
31855
29091
31728
30048
30781
29651
30622
28422
29708
28826
28522
29967
30005
28748
29053
29638
29912
30071
30096
30700
30932
30152
31163
29413
29059
27811
29217
27714
28279
28932
28296
28795
29656
29839
29224
30520
30670
28798
29356
29356
30406
28875
29207
29102
29359
30816
29134
29435
28577
30470
30495
30381
29773
31449
30871
30579
30721
29936
29728
28534
29956
28425
28681
29158
29417
29582
30633
30586
30609
31608
29127
29814
30805
31392
30133
30491
30029
30366
29234
29750
30038
29706
31626
31659
32581
31088
32488
32087
31439
32072
31174
30378
29787
30351
28862
28714
29774
29976
28825
30682
29878
30163
29889
28760
30041
30134
30991
29432
29162
29032
29238
27905
28028
28182
28370
29668
29531
30746
29129
30680
29513
29646
28860
29844
28658
28696
28837
27587
29449
29380
28393
28102
29452
29335
29633
29247
30371
30234
29729
30012
29540
28870
28488
28800
27473
27489
28509
28397
29580
29509
30946
29213
30692
27329
28840
28737
30436
28454
29345
28479
28866
28109
28723
29108
29249
30572
31402
32242
33096
35026
35600
37403
39925
39873
41200
41361
43800
42874
45333
47655
48924
49279
49279
52796
53371
54554
54506
53663
55450
55416
56266
54589
54163
51825
49933
47630
45407
42121
39209
36714
34111
31907
29367
27145
25064
24510
24612
25590
25906
26366
27735
27494
29841
29948
29823
29800
31235
31184
30774
31312
30553
31332
30181
31201
29033
29441
28042
29021
27309
29239
28118
28316
28742
30005
29789
29406
29981
30719
28435
29407
28884
29017
28334
29022
27195
28780
26337
28766
26533
29351
27911
29153
28196
28999
27951
29224
28624
28419
27330
28189
27426
27189
25975
28294
27134
28736
28199
30453
27712
29970
27202
28559
27741
29016
27124
28480
27331
27608
27187
27411
27076
27190
28379
28751
29113
28956
29781
28801
29005
29816
28625
28304
27592
28551
27223
27404
28451
28262
27990
29196
29054
28949
29629
28685
30526
29032
30495
28352
29080
28686
28520
28521
29132
28089
27572
29342
29168
30956
28985
31088
29252
29966
29868
30189
28768
28768
29348
29060
28717
27634
30496
29060
29199
29357
30319
29454
30550
27485
31655
29147
31883
28494
30580
28577
30787
27768
30170
28066
29969
29449
31449
30802
31151
30846
32489
30182
31765
29776
30999
29104
31487
28248
32747
30240
31421
29029
32372
30441
32454
30879
33261
32189
32617
31632
31478
30423
30202
30768
30430
30319
31151
30184
30821
31522
31847
31360
32992
32940
30934
31749
32347
31193
31680
31469
31923
33426
30678
31981
30695
32814
32488
33044
32252
33801
33147
33458
33251
32492
32219
31697
32407
31285
31008
32800
32147
33133
33011
34617
32996
35456
31653
33982
33531
35788
32940
35100
33187
34550
32264
33359
32629
33961
33713
35198
34824
35324
35170
35560
34344
36317
34380
34920
33406
35472
32672
33653
34714
35347
33221
35607
34107
35716
34903
33477
35873
35764
35944
34601
34466
34650
34529
33790
34081
34025
34236
35239
35439
36216
35342
36447
36689
35660
35548
35500
34754
34372
34852
33502
36240
35542
34949
34052
35576
35148
35295
35188
36172
36524
35203
35667
34485
34010
33785
33516
32936
32863
33026
33026
33282
33992
33998
35066
33478
34317
32891
33294
33365
33353
32054
32036
32007
31067
31600
31040
30726
30354
31727
31270
31124
30945
31786
31054
31223
31913
30543
30205
28980
30160
28594
28871
29291
29013
29133
29724
29235
29182
30088
29297
29940
29250
30277
28223
28357
28310
28149
28769
27922
27850
27351
28724
28648
28795
28298
29648
29290
29053
28900
28065
28032
27032
28298
26956
27847
27859
28141
27972
28580
28803
28446
29660
28033
28452
28636
29492
28058
28303
27647
28137
26747
27856
27565
27064
28345
29101
29767
27980
29501
29038
28318
29122
29183
28332
28157
28380
26934
27376
27599
28385
27280
29105
28295
28551
28274
27778
28719
28860
29502
28411
27980
28078
28132
27290
27008
27193
27563
28826
28295
29900
28036
29689
28177
28811
27906
28752
27498
28216
27813
27156
28387
28379
27668
27723
28787
28580
28847
28768
29586
28960
28687
29876
28015
28216
26687
28428
26778
27832
27772
27765
27791
29310
29011
28958
29231
29074
28870
28737
29288
28246
27887
28408
27558
29341
27104
26613
27595
28147
28920
28913
29288
29333
29219
28287
29872
28113
28412
26741
28445
26047
27180
27499
28423
26175
28828
27348
28709
27757
27495
28893
28402
28806
28004
27099
28098
26800
27216
26637
27472
27472
26350
28538
28035
29675
27665
30091
29107
28897
27679
28705
27598
27283
27536
26936
29091
28287
27669
27262
28745
28325
28692
28728
29421
29777
29128
29465
28318
27685
27170
27588
26896
27564
27963
26951
28394
28891
29734
28480
29807
29608
27624
28226
29402
28054
28663
28100
28228
29080
26768
27849
27277
28648
29215
28764
29783
29136
29426
29033
30118
27867
28697
27011
28758
26033
27069
26893
28427
27370
29558
28787
29334
28664
27420
27180
29566
28539
28950
27595
29160
26780
28244
26016
28230
26050
29639
27858
30799
28266
30908
28028
29852
28625
30130
27270
28358
27776
28383
26408
29456
27819
28157
28366
29340
28432
30182
27131
30691
28339
30381
27766
28556
28225
28688
27702
28496
27223
27284
28549
29407
29127
28797
30180
30460
28924
28588
28013
28091
27102
28169
26980
29866
28466
28583
27887
29178
29037
29193
29357
29563
30152
29090
29627
28276
27828
28340
28295
27609
27310
28259
27488
29491
28708
30959
28555
30828
28934
29977
28256
29502
27637
29208
28284
28604
29436
30294
28570
29522
29705
30476
30154
30656
30914
31739
30167
31642
29095
30037
27868
30743
27826
29867
29097
29628
29239
31072
30325
30856
31262
31868
29805
31069
31005
30072
30028
30669
30122
31468
29367
30251
30251
29106
31201
30741
31221
30549
32179
31356
31338
31371
30105
29659
28616
29964
28567
28726
29553
29590
29336
29956
30026
29933
30819
28077
28976
29575
30185
28290
28976
28365
28733
27078
27489
27635
27555
28891
29170
30047
28809
29911
29116
29003
29385
28905
27758
27770
28241
27123
26789
28719
28344
27501
29061
28767
28903
28905
26982
29599
28912
29904
27978
28257
28076
28512
27112
27828
27436
27771
28924
28983
29770
28658
29964
29250
28307
28022
28024
27661
27223
28079
27182
29941
29504
29072
28623
30321
30556
31566
32207
33971
36164
37015
39408
39132
40578
40564
42878
42493
45417
46914
48092
49556
52178
53246
53700
54776
55188
53207
54923
55355
54104
53324
51319
48784
47063
44145
41383
38073
36367
33088
31323
28193
27019
23694
23768
25565
24895
25861
25312
28076
27054
28586
29511
30082
29787
31099
30355
30318
30827
30272
30664
30060
30822
29044
28880
28991
28684
29661
28525
28608
27717
29477
29285
29519
28782
30380
29531
29163
28944
28716
28197
27324
28155
27186
28378
28257
28312
28191
28799
29071
28337
29564
28163
28734
28508
29538
27835
28115
27093
28160
26500
28120
27435
27434
28236
29323
29740
28678
29374
29517
28288
29270
28849
28406
27881
28530
27163
27877
27185
28690
28690
26721
29342
28294
29076
28515
28516
28272
29408
29139
28720
27768
28358
27899
27600
27223
28341
27659
29416
28815
30880
27710
30276
27635
29281
28162
29613
27324
28450
27651
27694
28264
28496
27501
28109
28757
29465
28701
29292
29789
29566
28903
30630
28621
29110
27223
29662
27222
28680
28464
28912
28547
30182
29494
29696
29782
29961
29588
29831
30085
29026
28882
29265
28885
30094
29133
29210
28508
30024
30403
30344
29767
31407
30783
30641
30399
29589
29773
28447
29909
28124
29454
29405
30312
29576
30764
30332
29846
30674
28136
31666
29985
31773
29195
30291
29697
30335
29078
30263
28894
29731
30569
32036
31512
31387
31551
33368
30840
31809
30306
31624
29418
31742
28856
33719
30658
32398
29922
33430
30853
33335
31533
33805
32622
33806
32587
32880
31121
32158
30986
32087
31046
33216
30748
33661
32752
34979
32700
35519
34290
33763
33328
35298
32984
34574
33388
34048
34595
32739
33557
33044
34547
35022
34205
35070
34470
34732
34604
35266
33553
33644
33328
34031
32869
32343
33889
34063
34526
34838
35956
34671
35896
32666
34384
34508
35878
33955
35170
34192
34756
33852
34199
33733
33704
35177
35954
36087
35818
36399
35965
35680
36882
34932
35315
33743
35571
33315
34100
34656
35437
35437
33719
36189
34512
35803
34631
34342
35892
35375
35687
34810
34112
34984
33821
34604
33743
34039
32823
34991
34199
35538
33705
35680
34879
34620
33126
33584
32351
31943
32095
31676
33124
32209
31292
31081
31873
31772
31714
31868
31676
32131
31447
31382
29909
30131
29024
29274
28055
28950
28970
28312
29094
29569
30269
29455
30443
30190
28266
29264
29861
28652
27862
28523
27449
29519
28630
27902
27180
28659
28000
29050
28066
29363
29274
29265
29153
27897
27461
26787
27751
26704
27223
27673
26952
27855
28449
28806
28165
29386
29680
28106
28354
29031
27783
28096
28021
28408
30137
27887
28321
27059
29104
28547
29347
28830
29536
28763
29413
28943
28375
27793
27445
28539
27506
27048
28630
28660
28456
29079
29360
28688
30192
27043
27892
28658
29745
27891
28344
27611
28392
26620
27144
26954
27207
28461
29102
29773
29016
29881
29242
29041
29597
28863
28066
27791
28704
27278
27288
28405
29026
27223
28911
28138
28687
28689
27288
29653
29442
29895
28312
28322
28566
29004
28014
28299
28000
28007
29297
28995
30089
28833
30655
29863
29743
29386
29237
28700
28102
28576
27448
29751
29536
28439
27888
29482
28914
29775
29005
30264
30557
29868
30445
28802
28477
27306
28360
27345
27922
28535
27671
27671
28140
28960
29409
28998
30327
30658
28551
29304
29922
28573
28811
28584
28552
30336
27573
28673
27309
29460
29008
29626
28426
30605
29174
29654
29659
28586
27724
27418
27946
27332
26887
28063
27975
28892
28127
29528
28708
28611
28917
28923
28577
29363
28089
27346
28276
27387
29106
27639
28634
27054
29256
28479
29782
28515
30659
29230
29600
28454
28778
27991
27217
27809
27702
28051
28188
27708
28109
28419
28738
27858
29757
28092
29264
28387
29726
27479
28371
26688
28069
25785
28152
27072
27472
27734
28944
29072
29112
29147
29816
28260
29308
29074
28773
27660
28510
26927
28068
27132
28593
26757
29565
28892
28935
28671
28132
28494
28823
29531
28447
27960
27753
28155
26792
27065
27160
27971
28392
28647
29742
28324
29729
28487
28443
28480
28816
27980
27544
28647
26437
28793
27672
28174
26863
29221
28051
29700
28008
30633
28251
29526
29064
28883
26962
27218
27201
27413
26392
28667
26850
28963
28180
30426
28250
31228
28564
30925
28378
31722
27600
29659
27592
29696
28682
29830
27456
29049
28965
30572
29035
30371
30413
31471
29632
31349
29024
30719
27637
30451
27650
30015
28951
30722
29468
31083
30007
30834
31159
30693
30189
31359
31568
30680
30395
30107
30110
28262
28997
29252
28332
28332
29788
29938
31087
29456
30548
30351
29420
29949
29742
29100
28107
29015
27985
30674
29232
29107
27975
28944
28984
28899
29090
29639
30435
28994
30307
28304
29008
27109
28626
26698
28745
27952
28234
28429
30101
29151
29823
29655
31177
27615
29835
29317
29492
28771
29888
27902
30670
26552
29506
27137
30603
28869
30452
29089
30548
28520
30584
29369
29704
28315
29342
28311
27500
26455
28522
27708
28909
28627
30245
28947
30992
27807
29757
29504
30748
29138
30948
31476
32851
33625
35230
36419
38555
41169
42976
44779
46715
48859
49662
51178
53756
53723
54524
54739
56280
55142
56404
58147
58044
57173
57192
55247
53144
51422
46171
46452
40672
38967
33403
31253
27211
24078
22972
23149
22797
23490
25793
26861
27419
27605
29821
30391
30006
30291
30163
30305
28952
30422
28932
31255
29832
29598
29258
30579
29796
30306
30633
30333
30844
30109
30542
28783
28988
28185
28521
26999
28543
28236
27555
28711
29234
29650
28989
29703
29990
28294
29010
29039
28570
28370
28936
27822
29066
27128
28552
26910
29239
28838
29331
29204
29086
28965
29504
29942
28432
28703
28579
28735
27746
27567
28506
28234
29252
29440
29477
29099
30334
30652
28569
29104
29747
28685
29214
29110
29024
30964
28164
29060
27534
27534
29896
29567
29973
29090
30639
29710
30346
29855
29144
28625
28443
29502
27645
27088
29120
28855
29093
29711
30422
29469
30926
27725
28906
29523
30914
29036
29870
29200
29823
28045
28070
28435
28388
29427
29912
30661
30336
31200
30480
29912
30590
29751
29780
28492
30055
28366
28101
29967
29800
28574
30638
29577
30475
29907
28746
30931
29966
30964
29291
29453
29645
29565
28992
28881
29176
28910
30650
30412
31679
30129
32360
32163
31622
30702
31300
30297
30342
30203
29421
31988
31550
30123
29987
30870
30938
30898
31524
31723
32746
31026
32691
30387
31189
29225
30808
29461
30938
30416
30904
30731
32114
31797
32128
32624
33694
30339
32325
32157
31730
31468
32227
31260
33757
30171
32414
30294
33253
31844
33005
32303
33876
32279
33306
33019
32481
31677
31878
31840
31664
30351
32788
32443
33200
32872
34850
33232
34788
31138
32230
33187
34682
32438
33579
32644
33348
32473
32441
32978
33013
34372
34599
35108
34728
35666
34558
34994
35267
33856
34052
32404
34504
33008
33981
33668
34687
33692
35555
34700
34856
35604
34518
34172
35464
35454
34905
34452
34767
34438
34667
33545
34866
33066
35702
34762
37133
34066
36402
34648
35500
34725
36434
33156
34910
33768
34241
31984
35309
33628
34419
34419
34188
35193
33630
35048
31784
35255
33503
36343
32524
33928
31938
34245
31480
33070
30826
33031
31813
33424
32691
32707
32440
33434
31447
32489
31359
31553
29683
31264
28666
31733
29859
30293
28905
30892
29817
30833
29568
31413
30506
30462
30632
29357
29010
27768
29052
27530
28151
28791
28174
28322
29596
28871
29117
29558
30372
28327
28837
29646
28146
28135
28482
27947
30202
27335
28032
26734
29178
28543
29360
27827
29997
28750
29792
28939
29432
27703
28146
28440
28128
26855
29099
27942
29428
28678
30096
28027
30873
26819
28933
28503
30702
27863
29871
27911
29602
27335
28472
27139
28166
28267
29867
29587
29600
29309
29935
28535
30189
28595
28621
27390
28999
26588
26925
28135
28696
27243
29308
28153
28796
28084
26893
29250
28968
29783
28218
28279
28416
28580
27508
28675
28324
27362
28743
29196
30031
28812
29902
29703
28331
28899
29535
28500
28635
29140
28061
28044
27197
28801
27307
29400
29191
29226
29183
28680
29203
29400
29797
28882
28582
28368
28630
27571
27514
28227
28531
29144
29209
30456
28953
30018
28382
29117
29031
29829
28256
28890
28635
28002
28808
28338
28261
27865
29449
29307
29639
29149
30255
29429
29531
30158
28924
28699
27370
29049
27401
28126
28621
28341
28115
28115
29134
29226
28997
29667
29437
29772
29248
29874
28590
28774
28840
28534
29744
28767
28536
27547
29422
29699
29869
29105
30246
30253
29857
29395
29041
28742
27442
28807
27428
28328
29056
28775
28688
29235
29824
29314
30350
28949
29449
29321
30153
28582
29030
27807
28742
27211
28299
28001
27671
28802
29445
30125
29096
29879
30080
28796
29466
29531
28736
28355
29256
27535
27790
27876
28980
27091
29733
28963
29328
29215
28376
29142
29424
29936
28900
28329
28572
28635
27809
27722
28157
28132
29590
29086
30762
29087
30510
29271
29518
29104
29399
27881
28502
28516
27489
29097
28809
28004
28092
29055
29244
29285
29207
30244
29494
29984
29547
28949
28014
28258
28343
27520
26364
28414
27807
28847
28589
30155
28569
30508
27228
29612
29068
30193
28147
29777
28943
29552
27482
28629
27799
28342
29245
29906
29905
30289
30411
30115
29331
30881
29047
29210
27929
29517
27396
28449
29203
29876
28056
30078
29127
30140
29240
29235
30852
30408
30578
29773
29190
30005
28932
29841
29507
29752
28514
30637
29891
31292
29391
31564
30497
30743
29303
29599
28430
28138
28773
27961
29494
29132
28820
28592
28592
29551
29245
29231
29682
29799
30178
29145
29996
28503
28317
27646
28332
26951
28091
27962
27433
28582
28925
29855
29093
30093
29554
28271
28758
29594
28296
28710
28569
28493
29290
27636
28526
27855
29160
29691
28825
29979
28844
29388
28889
30643
28074
28950
27560
28954
26764
27494
27465
28706
27693
28708
29290
28909
29032
28193
28362
30347
29789
30027
29164
30686
28482
31203
29880
33146
32204
37172
36984
40738
40619
44409
42930
46212
46777
48742
48079
50503
51458
53550
52869
55831
54282
56207
57048
58081
56440
58054
53760
55308
50862
50915
44910
43735
38047
35160
32371
28093
26443
22932
24097
24657
26351
25669
27625
27563
27827
29684
29239
29690
29318
30576
29074
29005
30908
30400
29579
30904
30245
30562
29910
28121
30581
30682
30891
28934
28543
28927
28722
27968
27917
27932
27849
29464
29227
30311
28715
30980
30084
29673
29034
29795
28299
28743
28472
28216
29648
30049
28235
28570
29177
29653
29231
29738
29718
31116
29415
31212
28617
29286
27263
29199
27079
29206
28335
28989
28651
28651
30595
29731
29970
30018
31228
28323
29887
29951
29342
29132
29480
28901
31024
27700
29456
27975
30131
29700
29916
29271
30384
29459
29740
30040
29094
28664
28118
28793
27611
27296
28654
29142
29405
29854
30724
30060
31309
28033
29095
29649
31065
28923
29729
29035
29204
28105
28305
28681
28836
29906
30316
31191
30602
31411
30507
30433
31385
30877
29746
29060
29536
28037
28050
29882
29543
28612
30314
29885
30269
30071
28331
31511
30395
31639
29906
30028
29903
29926
29145
29851
29458
29556
30968
31316
31530
30886
31824
31854
30894
31014
30864
30743
29798
30483
29159
32308
31152
30613
30336
31681
31268
31688
31413
30569
31409
31537
32392
31530
30899
30992
31354
30476
30199
31040
31148
32102
32023
33696
31767
33324
31903
32634
31832
32720
31484
31782
31749
30942
32368
32202
31766
31220
32447
32749
33472
32874
34014
33557
33634
34372
32857
32672
31679
33300
31775
32298
32998
32492
32889
33913
33736
33738
34792
34517
34150
33864
34831
33587
33862
34238
33919
35232
33561
33927
32583
32583
34908
34853
35054
34219
35816
35271
35212
35044
34574
34496
33576
34489
33360
33866
34612
34501
34822
35466
35828
35076
36415
34372
35253
35059
36000
34747
35208
34352
34966
33175
34378
34019
34052
34916
35840
36354
35016
36026
35933
34906
35861
35040
34608
34181
34970
32876
33430
33875
34328
33130
35178
34072
34894
33789
33924
34343
34339
34278
33373
32435
33260
32600
31688
31482
32119
31083
32802
32010
34065
31405
33605
31701
32552
30959
31966
29749
30612
29837
29326
30171
30702
28797
29030
29504
30241
29706
30081
30671
30600
29279
30770
28375
29191
27086
29232
26759
28159
27718
27792
27412
28944
28459
28818
28995
29744
27691
28589
28978
27780
27455
27762
27388
26579
27024
26406
26648
27780
28131
28328
28556
29334
28216
28560
28850
27673
27613
26681
27648
26719
26412
27831
27610
27363
28059
28183
28061
28875
26780
29707
27749
29679
26990
27718
27348
27746
27083
28100
27015
27407
27859
28966
28324
28972
29213
29984
28469
29162
27401
28814
26128
28850
26714
30501
27656
29395
27098
27098
29895
28105
29885
28256
30167
28832
30107
28954
29447
27289
28984
27128
27891
27421
29197
26579
29538
28526
31416
27993
30961
28789
29466
28657
30836
27623
29802
28193
29173
28099
28631
28454
28504
29124
30113
28736
30329
28683
29651
29116
30443
28059
28858
27644
28908
27148
28181
27744
28610
28992
29057
30433
29068
30146
27615
28914
28917
29822
28161
28770
28255
27738
27884
28148
28116
27468
29103
29605
29498
29773
30416
29656
29369
30589
28917
29144
27569
29521
27606
28612
28886
29270
28057
29848
28926
30010
29446
29854
30040
29994
29809
29151
28271
29634
28059
29805
27941
29274
27503
30306
29241
30851
29405
31460
30469
30736
29487
30372
28771
28874
28954
28913
29061
29762
29026
29564
29486
30427
30196
29119
28072
30157
30256
30245
28867
28571
28700
28111
27812
27858
28034
27785
28946
28982
29702
28535
30174
30527
29282
29025
28942
28298
27814
28279
27291
30043
29037
28481
27964
29719
28911
29647
29211
30388
30802
30140
30528
29175
28441
27772
28236
27114
28020
28447
27638
28691
28691
29048
29394
28842
30317
30412
28230
29624
30183
28344
28965
28483
28598
30007
27415
28849
27826
29440
29263
29447
29358
30121
29298
29646
29838
28666
27872
27680
28435
26855
26403
28077
28353
29010
29278
30060
29171
30741
27529
28992
29525
30812
28538
29511
28883
29104
28081
27855
28459
28470
29847
30131
30697
30466
31057
30318
30049
30884
29879
29074
28529
29461
28063
28172
29985
29802
28847
30608
29933
30508
30686
29041
32270
31112
32110
30700
30439
30274
29895
29533
29395
29568
28718
30288
30361
31067
29831
31184
31499
30334
29649
29769
29235
28538
29177
27858
30539
29358
28866
28153
29568
28989
29196
29542
29670
30461
29253
30076
28323
28480
27476
28114
27214
28309
28055
27661
28620
29047
29599
29040
29623
30356
27850
29270
29541
27870
28312
28455
27354
29063
28664
28020
27933
29077
29096
29245
28746
29975
29630
28929
30098
28555
28079
26491
28259
26092
27336
27539
27350
27664
29157
29165
29277
30363
31090
29755
30184
31244
30977
31383
33234
34309
38033
37062
39900
39793
39793
43322
43277
45700
45534
49656
49566
51554
52355
53822
53772
53309
54355
53804
54594
56034
55267
55472
54078
52613
49796
48190
43187
40712
37271
34851
30619
28614
24276
22992
20362
22874
22644
24582
25705
28306
28619
29264
29777
30936
29783
31436
29986
29969
28624
30275
27703
27810
28456
29057
27441
29768
28369
29489
28240
27236
28833
29173
29302
28168
27729
28102
28123
26999
27197
27475
27383
28628
29090
29992
28356
29609
29428
28634
28453
28526
27650
27380
28277
26709
29579
28332
28073
26880
29110
27976
29319
28352
30060
28923
29175
29364
28419
27755
27148
27720
27285
27470
28502
27191
28534
28767
29722
28530
30346
29502
28847
28396
30354
28121
29556
28148
29979
30072
29039
28325
28699
29258
30812
29132
30310
30074
31150
29316
31204
28121
30054
27326
30508
26856
28911
28268
27740
29582
29020
30941
28828
31467
28617
32040
28972
32109
28536
30575
28784
30111
29426
30559
28642
29729
29690
31048
30346
31259
31272
31975
30316
30963
29855
30345
28645
30544
28646
31040
29884
30339
29260
29260
30802
30612
30791
31716
31067
31296
30934
31637
30119
30472
29696
30590
29000
30471
29914
29856
30712
31250
32205
31434
32365
31984
31094
31905
31688
30878
30730
31835
30087
31029
29939
31585
29720
32444
31573
32570
31831
31455
31597
32920
32677
32512
31041
32428
31685
31984
30507
32349
31536
33019
32058
34696
32206
34744
31837
32644
32481
34659
31691
33238
32012
33072
32082
33209
32423
32350
32675
34069
33547
33852
34347
34008
33647
35352
33137
33255
31780
34107
32032
32803
33265
33498
32927
34008
34050
33916
34738
34494
35048
34354
35461
33616
34008
34334
34337
34634
33792
33682
33188
34640
34942
35228
34742
35900
35869
35195
35351
34862
34655
33482
34872
33964
34922
34938
35263
34914
35905
35524
35323
36594
35358
35555
35479
36252
35091
35462
34805
35478
34010
34782
34686
34508
35508
35911
36953
35576
36431
36458
36090
35635
35528
35135
34052
35009
33605
36526
34780
34576
33704
35388
34355
34923
34640
35134
35516
34563
35098
33215
32784
31716
32435
31388
32131
31900
31526
32112
32112
32650
32910
32134
33109
33503
30927
31813
32205
31057
31016
30732
30178
31759
28629
30177
28988
30802
30244
30451
30314
30713
29985
30393
30125
29242
28677
28436
28816
27754
26892
28490
28425
29005
28906
29716
28660
29959
26711
28282
28594
29471
27726
28170
27756
27658
27068
26766
27291
27272
29031
29024
29535
29271
29915
28894
29111
29591
28620
28076
27207
28040
26747
26784
28464
28253
27451
28572
28099
28513
28580
27493
29935
28558
29639
27636
28093
28099
27498
27830
27917
27637
27223
28720
28991
29360
28341
29749
29950
29176
28618
29040
28151
27322
28121
26847
29486
28445
28067
27811
29163
28648
28599
29298
29157
29770
28690
29940
28129
28457
27047
28096
26586
28134
27592
27533
28258
29172
29354
29196
29935
29954
27569
29026
29343
28813
28126
28869
27431
29410
26335
28920
26806
29784
28454
29224
28434
29618
28357
29622
29085
28792
27478
28349
27511
27664
28429
27530
27929
27860
29762
28702
29278
29072
30862
27837
29360
28959
28766
28080
28682
27709
30618
27123
28364
26540
26540
29552
28369
29552
27887
30447
28539
29849
29239
29008
28116
27732
28199
27416
26420
28625
27812
28491
28815
29632
28707
30317
26966
28266
28564
30032
28228
28930
27942
28608
27162
27022
27467
27323
28973
28941
30133
28710
29765
28873
29091
29195
28985
28101
28105
28144
27021
26127
28868
27873
27357
28616
28761
28440
28623
26116
29782
28018
29742
27280
28598
27450
28891
26942
28509
26828
28271
28173
29803
29206
29565
29167
31295
28123
29607
27796
29158
27070
29499
26098
31254
28073
29495
26468
30765
27594
30568
27880
31194
29265
30825
29112
29751
27594
28736
27560
28535
27534
29740
26997
29703
28568
30646
28108
31190
29945
29437
28430
30859
28385
30197
28846
29983
30598
28648
29132
28681
29855
30255
30030
29951
30486
30270
29912
30320
29100
29023
28340
29174
28153
27369
29117
29248
30097
29839
31100
30010
31622
27877
29869
30304
31699
29595
30942
30076
30805
29495
29589
29641
30082
30851
31689
31818
31960
31807
31518
31705
30391
30866
29733
29885
29901
29908
29326
30664
29507
30426
30426
30303
31344
29895
31906
29280
30650
29613
31255
28972
30138
28532
30116
27336
29394
28195
28657
28829
30446
30163
29981
29916
30900
29042
30619
29181
29812
28537
29740
27693
28234
28432
29728
27780
30246
29253
29765
29090
28380
29322
29436
30147
28474
28434
28727
29012
27666
27917
28247
28329
29112
29303
30080
28504
30053
29024
29064
28989
29340
28380
28943
29083
28512
30983
30146
29974
30065
32362
33253
35048
36526
39480
40280
41568
43588
43250
43993
44059
47408
47437
49018
51155
52136
53202
53930
54379
53708
55687
55289
54861
54495
54237
50020
49021
45597
43968
41980
37200
33449
30466
29595
27492
24624
23521
26040
26299
27060
27797
28060
28346
28096
29847
29074
29675
30612
30763
30478
31044
31088
30496
31752
29118
29551
30120
30797
29190
29604
28652
29350
27639
28092
28132
28116
29106
29766
30454
29538
30451
30282
29566
30326
29541
28690
28339
29004
27420
27422
28381
28789
27675
29310
28543
29250
28687
27452
29336
29312
30048
28762
28402
28817
29021
27964
28980
28319
28074
28897
28897
29736
30098
29422
30449
30676
28788
29899
30234
29101
29163
29540
28301
29613
27573
29706
28105
30452
29422
29857
29751
30177
29369
30364
30675
29647
28844
29124
29078
27875
27975
28928
29059
29628
29564
30956
29163
31046
28401
29994
29658
30884
28813
29408
29032
28841
28622
28743
28392
28802
29692
30256
30110
30125
30941
30075
30129
31313
29737
29689
28233
29794
28153
29086
29617
29689
28984
30461
29869
30193
30540
30088
31126
30440
31405
29962
29683
30211
29491
31401
29625
29613
28561
30949
30371
31380
30245
32194
31175
31563
30567
30928
30099
29492
30342
29839
30639
30728
30347
30584
31046
31501
30604
32113
30675
31619
30928
32576
30486
31477
29906
31296
29152
31088
30063
30597
30799
32486
32355
31612
32155
32754
31209
32793
32119
32005
31007
32108
30286
31386
30416
32156
30296
32825
31967
32721
32023
31908
32187
32939
33500
32680
32295
32332
32521
31639
31655
32034
32167
33384
33618
34893
33321
34402
33218
33652
33725
33964
33051
33288
33705
32317
34164
33525
33594
32904
32904
34744
33944
35340
34126
34958
35178
35036
36255
34380
35053
33724
35126
33092
33064
34296
35101
34617
35550
35940
35529
35826
33577
34373
35842
35791
35525
35282
35769
34625
35251
33572
35259
33602
36867
35442
37814
35644
37901
35277
37251
35879
36795
34586
36035
34491
35036
32992
36610
34350
35078
34779
36450
34194
36669
32916
37301
33900
36739
33284
35098
33045
34534
32612
34318
32161
33382
33178
34549
33428
34135
33983
34879
32493
33048
31859
33088
30267
31988
29833
32621
30957
31006
30096
31632
30386
31255
30950
30799
31526
30543
30929
29604
29890
29349
29252
27852
28996
28405
28032
29035
29736
30359
29682
30188
30316
28545
29464
29770
29024
28807
29144
27885
29472
27202
29130
27131
29963
28806
29601
29249
29579
28695
29696
29388
29036
27951
28890
27942
27754
26522
28759
27678
29477
28106
30893
28065
30440
26950
29589
28080
30332
27779
29457
28073
28850
27746
29039
27708
28516
28667
29891
29417
29770
29701
29657
28655
30360
28176
28834
26931
29071
27251
27935
28377
28510
27444
28869
28578
28977
29319
28518
29789
28638
29699
27990
28906
28083
28380
26854
26941
27203
27327
28795
28795
28816
29975
29090
29950
29255
29019
29680
28553
28269
27904
28866
27417
27017
28827
28686
27324
28976
28590
29112
28904
27120
30065
29132
29864
27964
28174
28382
28263
27448
27906
27649
27707
29207
29264
30101
29378
30344
30616
29484
29205
29062
28386
27929
28503
27696
30769
29334
28783
27868
29792
29357
29344
29074
30271
30481
29613
30145
28679
28664
27509
28152
27119
28329
28252
27857
28321
29262
29847
29002
30199
30536
28274
29159
29786
28514
28834
28744
28470
29846
26920
28641
27210
29199
28743
29216
28954
29998
28945
29337
29348
28481
28084
27688
28541
26854
26742
28373
28235
28800
28569
29731
28541
29676
26572
28082
28503
29449
27732
28608
27980
27864
27023
27064
27364
27270
28723
28922
29451
29152
29907
28728
28853
29614
28396
27996
27020
28048
26811
26318
28239
28250
27178
28645
28145
28588
28574
27336
29400
28460
29328
27341
27687
27614
27232
27453
27368
27248
27221
28629
28391
28824
28327
29468
29730
28880
28279
28168
27728
26904
27862
26787
28756
27978
28003
26859
28704
27559
28520
27635
26368
28419
28591
28820
27565
27054
27797
28026
27289
27267
27504
27300
28514
28015
29464
27604
29219
28492
28477
27401
28373
26967
27748
27499
27098
28980
29212
27556
27940
28723
28723
28920
28376
29117
29259
30278
28526
30048
27920
28385
26179
28234
26593
28633
27606
27874
27515
29534
28489
29372
29716
31256
28068
29925
29471
29474
28733
29408
28711
31439
27799
29842
27951
31334
30003
30925
29344
31373
29772
30622
29793
29396
28047
28299
28567
27910
26297
28696
27997
28990
28726
29726
28623
30336
26506
27994
28171
29458
27292
28305
27214
27952
26669
26360
26624
26668
28071
28394
28919
28428
29199
28536
28455
28794
28145
27376
27047
27420
26210
25657
28100
27416
26962
27912
27681
27672
28246
25728
29447
27560
29760
27060
27826
26912
27439
26357
27277
26310
27268
27745
28966
28350
28494
28605
29765
27362
28227
27200
28113
25868
28321
25988
30722
28333
29486
27260
31094
29201
32164
31284
34862
35554
37963
38688
40380
39668
41744
41926
43642
44716
47927
47068
50925
51437
54591
52642
53736
54136
53075
55351
53528
54216
51706
51502
46222
47832
42661
41687
35868
36144
31044
31058
26268
26533
23050
24459
25304
25570
25254
25900
27712
27359
28050
29421
28974
29835
30708
30671
30040
31304
31384
30305
29372
29943
28656
28928
28958
28606
30096
28335
28568
27345
29507
29055
29712
28538
30252
29219
29664
28919
28868
28114
27512
28160
27523
26934
28825
28043
28612
28658
28658
29768
28539
31010
27101
29324
28491
30537
28286
29907
27788
29734
26929
28448
27277
28284
28556
29980
29749
29714
29571
29951
28691
30400
28704
29459
28020
29711
26754
27692
28335
29528
27372
30026
28612
29954
28302
28069
29183
29583
29498
28888
28018
28816
28863
27536
27965
27988
27873
29217
29143
30176
28684
30447
29875
29236
29215
29201
28386
28160
28574
27401
30015
28987
28618
27998
29447
29062
29723
29147
30726
30318
29898
30240
29180
28877
28044
28936
27849
28618
29022
28413
29055
29863
30527
29712
30907
31342
29290
29799
30590
29000
29806
29483
29739
31346
28903
29623
28520
30545
30449
30550
30007
31404
30556
30900
31184
30313
29979
29044
30409
28949
29137
30148
29768
29489
30468
30544
30526
31395
30546
31655
30956
31793
30398
30763
30145
29927
30962
30452
30247
29477
31352
31449
31708
31300
32560
32133
31921
31723
31445
31183
30142
31486
30304
31467
31372
31666
31096
32361
32300
32107
33200
31832
32608
32407
33374
31831
32242
31504
32547
30790
32400
31869
31682
32458
33721
34071
33129
34324
34140
32962
33893
33886
33210
33036
33452
32238
32760
32427
33677
32511
34392
33804
34159
34101
33466
34172
34756
35231
34168
33909
34087
34386
33032
33634
34021
34133
34720
34808
34808
36095
34687
36248
34626
35050
34663
35213
33855
34392
34147
33584
34644
34943
34081
33892
35103
34989
35307
35225
36254
35410
35140
36333
34761
34560
33122
34964
33273
33828
34298
34092
33964
35134
34914
34768
35470
35336
34279
34367
34989
33644
33623
33521
33283
34445
32720
32746
31496
33240
32787
33320
32134
34200
32860
33072
32303
32218
31028
30531
31223
30026
30035
31252
29983
30497
30551
31013
29897
31549
28819
29623
29423
30975
28491
29594
28035
29371
26871
28392
28170
26998
29318
28301
29684
28034
29947
28834
29181
27809
28187
27162
26996
27183
26920
28094
28071
27018
27108
27702
28112
27644
28428
28222
29212
28043
29610
26954
27477
26245
27184
25845
27277
26523
26602
27197
28152
28436
27802
28821
28742
27125
28016
28775
27300
27600
27532
27053
27857
26122
27291
26287
27964
28118
27672
28258
28079
28091
28242
28931
27500
27399
26892
27622
26075
26518
27181
28237
28066
28894
29200
28498
28994
26974
27569
28341
28457
27802
27548
28347
26492
27327
26180
27470
26100
28981
27653
29727
27904
30279
27547
29822
28583
29331
27112
28011
27298
28139
26458
29509
27043
28792
27900
29759
27694
30191
26988
31007
27807
31142
27334
29520
27496
29194
27706
29086
27202
28760
28643
30311
30311
28985
30095
29894
30764
28968
30006
28566
29575
27212
29172
27158
29794
28422
29371
27817
29842
28940
28941
29580
29239
29344
29119
29854
28321
28486
27877
28671
26705
28508
28106
27620
28570
29446
30023
28192
29756
29642
28542
29469
29820
29378
28967
28794
27389
28300
27375
28836
27162
29798
28749
29404
28856
28696
28591
29502
30430
28137
28876
27112
28940
26722
28730
27991
28524
28020
30508
29162
29760
29781
30997
27745
29491
29558
29445
28547
29384
28169
30923
27109
29478
27147
30470
28821
30350
28695
31276
28815
30117
29135
29227
27747
28479
28296
27592
26600
28574
27939
29904
28933
30048
28603
30369
26725
27844
28476
29759
27660
28422
27747
27956
26642
26730
27294
27104
28674
29060
29651
29024
29844
29064
29142
29497
28782
28368
27372
28224
26614
26860
28965
28346
27119
28972
28356
28681
28762
26773
29868
28603
29536
27918
27970
28077
27812
27119
27586
27202
27207
28837
28949
29648
28512
29916
30357
29461
28596
28284
28014
27365
28364
26987
29860
28687
28247
27580
29267
28679
29131
29123
30091
30068
29345
29605
28354
28405
27508
28086
26877
28109
28087
27475
28436
29299
29299
29504
29168
30181
30305
27905
28953
29465
28565
28526
28614
28027
29717
26779
28586
27290
29707
29182
29518
29707
30148
29546
30154
30118
29000
28795
28752
29435
27905
27818
29126
29143
29654
29509
30765
29360
30912
27870
29154
29485
30566
28503
29608
29080
29000
31176
29148
29464
28343
30238
30503
30867
29981
31746
30891
31244
31134
30240
30132
29395
30659
29378
29535
30266
30327
29873
30327
30924
29870
31400
28373
29407
29798
31151
28771
29209
28395
29329
27293
28324
28103
27692
28680
29304
29961
29018
29845
29439
28577
29544
28467
28144
27679
28416
26672
26802
27787
28284
26790
28817
27663
28654
28055
26899
28564
28704
28805
27568
27223
28003
28078
27127
27616
27864
27717
29198
28851
30170
28367
30108
29359
29414
28362
29030
27516
27913
27560
27292
29118
29053
26859
27326
27786
28057
27996
28541
28818
30066
28870
30456
28477
29406
27468
30016
28353
30925
31479
33395
34428
38127
38609
40690
42117
44523
42706
45784
47091
48031
48550
51074
51737
54878
51786
53312
51493
54752
53923
53923
54752
53046
53784
50278
48928
46540
42603
39305
35209
32925
29658
26810
25871
23070
23244
23679
25834
25305
28783
25341
27712
28739
30756
29295
30591
30046
30271
29019
28645
28905
28723
29873
29917
30906
30004
30934
29587
29631
29946
29365
28188
28157
28441
27265
26381
28919
28560
27925
28746
28476
28342
28827
26176
28924
29406
29504
29039
27777
27980
27972
27750
27865
28255
26633
29259
28282
30791
27828
30592
29108
29139
28733
30299
27556
29283
27875
28839
27598
28570
28036
29000
28880
30237
28432
30442
27896
29980
28616
31379
28122
29456
27550
29343
26512
28788
27483
29461
28578
30140
30081
30014
29731
29411
29081
30588
29652
29847
28678
30380
27652
30109
28654
29596
28245
30295
29426
30786
29748
31565
29584
30248
30722
30008
29180
28023
29288
27944
28594
29514
29003
28787
30024
29664
29755
30556
30310
30506
30338
31086
29186
29502
29505
29485
30388
29447
29870
28612
30869
30662
31136
30123
32300
31316
31545
30774
31168
30151
29602
30394
29858
30210
31012
30613
31139
31037
31037
32303
30878
32762
30333
31788
31079
33139
30604
32198
30142
32202
28769
31582
30426
31062
31524
33057
33029
32344
32522
33417
31297
33828
32110
32729
31404
32933
30448
32099
31035
32864
30581
33173
32236
33094
31941
31474
32111
33115
33258
32724
31676
32286
32436
31176
31197
31545
32036
33016
33251
34684
32757
34408
32992
33522
33240
33584
32500
32741
32952
31838
34732
31730
33256
32188
34387
34025
34393
34519
35109
34443
34312
35026
33918
33883
33415
33988
32635
32596
34009
34330
34672
35221
36626
35519
35801
32808
34274
34685
36076
34352
34953
34621
34362
33587
33356
34091
33656
35611
35424
36601
36044
37015
35771
36056
36532
35484
35318
34450
35301
33960
33970
35836
35169
34492
35754
35489
35493
35875
33988
36914
35532
36789
34949
35135
35142
34700
34365
34562
34146
33974
35508
35448
36056
35361
36578
36476
34920
34284
34300
33956
32960
33572
32529
35047
33512
33124
32196
33681
32998
33324
33447
33708
33739
32740
33464
31931
31769
30684
30955
29464
30282
30405
29722
30711
31349
31349
32021
31188
32120
32368
30239
30934
31624
30297
30035
30381
29014
30362
27559
29636
27905
30275
29541
29795
29614
29760
29133
29677
29921
28994
28348
28517
28934
27959
26557
28346
28170
28934
28797
30284
28758
30080
27016
28490
28575
29706
27735
28801
28337
27708
27361
27468
27329
27305
28570
29184
29501
29254
29829
29034
29026
30051
28471
28570
27118
28710
26974
27563
28385
28744
27520
29325
28479
29184
30518
27155
28353
28805
30051
28119
29226
28223
28997
26769
27680
27867
28174
28882
29880
30089
29609
29916
29900
28843
30100
28835
28652
27772
29183
26997
27204
28373
28945
27289
29468
28607
29635
28329
27144
29525
29284
29895
28856
28382
29060
28825
28047
27764
28404
27995
29734
29331
30916
28835
31047
30086
30186
28697
29529
28010
28494
28224
27682
30239
30011
28305
28136
29003
29324
29172
29532
29847
31046
29655
30572
28179
28573
27215
28616
26856
28649
28412
28379
28175
30061
29582
29427
30464
31354
28439
29428
30373
28994
29132
28864
29215
31070
27807
29000
27979
29824
29665
29665
29678
29227
30572
29798
29666
30380
28777
28690
27534
29039
27453
27499
28803
29573
28636
29786
29957
29583
30503
27573
27940
29498
30073
28567
29023
29015
28567
28130
27106
28594
27470
30107
29123
30983
29142
31309
28944
30215
29476
29897
27752
29147
27902
28525
26594
30614
28401
29171
28749
30439
28696
30431
26054
31738
28367
31392
27642
29888
27712
29949
26925
29331
27486
29465
28848
30877
29698
30191
29765
31933
29436
30594
28883
29989
27622
29094
29131
28193
29043
29047
28755
29429
29788
29079
29774
27904
29535
29379
30827
28838
28926
28900
29402
27680
28355
28176
28778
29822
29551
30456
28935
30471
28549
29261
29197
29678
28553
28768
28323
27738
29092
29027
28460
28392
29298
29234
29581
29450
30771
30336
29874
30982
29143
29358
27532
29936
28087
29246
29093
29199
28576
30386
29247
29899
30064
30812
29377
30518
30159
29732
28861
29836
28791
31194
28947
30125
27889
30734
29625
30957
28954
31528
30375
31270
30039
30464
28984
28816
29214
28892
28437
29851
29379
30162
29973
29973
30667
29613
31314
28934
30052
29824
31158
29279
30253
28720
29601
27399
28706
28173
27758
29335
29626
30976
29074
30335
30314
29837
30820
30659
29325
29068
29596
27937
28133
28645
29010
28119
29900
29219
30072
29627
28567
30434
30700
31642
30270
29860
29929
30403
28640
29261
29253
29659
30178
29766
31034
29717
31164
30611
30649
30256
30567
29895
29646
30435
29009
31517
30847
30575
30076
31511
30604
31370
30727
32657
31981
31679
32238
31405
30934
29496
31108
29627
30142
30743
30056
30418
31039
32138
30469
31796
28370
29858
30260
31461
29591
30325
29565
29466
28793
28542
28666
28481
29729
30138
30322
30208
30965
29702
29847
30610
29442
29109
27798
29240
27840
28039
29651
29036
28175
29719
29420
29280
29748
28506
30883
29180
30554
28473
28995
29118
28815
29008
28861
28472
28039
30024
30071
30528
29539
31305
31150
30189
29757
29549
29484
28280
29559
28094
30393
28783
29006
28443
30027
29324
29820
29987
30658
31071
31093
31904
30076
30872
30667
32451
31978
35653
36734
37848
40128
42555
44203
44428
46397
48340
47542
49834
51337
52542
53807
54538
53629
55044
52903
55092
53447
55436
54739
54739
52461
50953
48616
45838
43368
40791
35681
32867
30110
28336
23784
21965
23730
24420
26238
26715
29427
28496
30708
27995
30540
30851
31949
30114
31204
30407
29926
29062
29376
29119
28921
29912
30406
30328
30503
30926
30168
29655
30975
28962
29344
27403
29653
27286
28445
28492
29018
27999
29807
28534
29585
29088
28561
29892
29278
29628
28597
27949
29148
27653
28807
28112
28576
27081
29481
28991
30129
28862
30940
30318
30568
29699
29257
28402
27823
29480
27051
27522
28508
29414
27387
30067
28591
30096
28535
27692
29512
29606
29802
28897
27994
28996
28727
27937
27811
28570
27921
29903
29479
31057
29155
31528
30381
30290
29250
29777
28824
28566
29085
27967
31052
30023
29085
28511
30018
29510
30718
29659
31238
31201
30571
30954
29780
29092
28590
29143
28187
29005
29747
28694
29897
30336
31061
29776
31927
31653
29660
30006
31450
29505
30735
29332
30932
31560
29627
29748
29612
30677
31388
30652
31446
31585
31921
30806
32264
29798
31071
29095
31320
28750
29693
29563
31647
30048
32311
31315
32421
31834
30645
29660
32375
31630
31672
30560
31892
30311
30404
29014
31636
29621
33106
31240
33947
31584
34407
31729
33450
32072
33312
30893
32197
31218
32094
29816
33639
31466
32107
31907
33000
33000
32066
33271
29978
34552
32834
34764
32048
33153
32140
33105
31351
32515
31824
32362
33576
33974
34621
33431
35056
34814
34184
33770
33964
33383
32740
33545
32664
35781
34410
33773
33297
34922
34604
34991
35249
35870
36565
35340
36490
34551
34955
33291
34724
33314
35300
34795
34857
35162
36808
36033
36484
37822
35000
36936
35590
37321
34840
36600
35247
35458
35780
36448
34948
36028
36206
37080
36562
37126
37707
37738
36766
38541
36098
36859
34348
37123
34726
36341
35778
36592
35679
37664
36692
37096
37275
37689
36771
37219
37397
36120
35875
36696
35997
37003
35367
35664
34863
36323
35742
36136
35125
36420
36138
35597
35369
34718
34363
32652
34201
32343
32965
33198
33749
33201
34016
33682
33306
34286
32591
32734
32862
33187
32073
31980
31484
31744
30282
30359
30619
29642
31255
31537
32796
30548
32077
31399
30835
31108
31085
30036
29804
29866
28631
27782
29218
29340
28698
30256
29551
29671
29086
27917
29603
29745
30573
28824
28596
28420
29070
27654
28075
27934
28502
29277
29497
30465
28795
30435
29699
29140
29078
29674
28485
28440
28627
27200
29466
28898
28178
28068
29339
28913
29248
28619
29916
29624
29546
30152
29208
28617
27346
29078
27441
28188
28682
28272
28688
29597
29591
29591
29297
30413
30062
28974
29397
30278
28908
29214
28972
28994
30462
28407
29138
27735
30277
29616
29891
28963
30779
29573
30276
29911
29580
29024
28528
29617
28167
28440
29705
29431
28414
30123
29436
29651
29652
28039
31321
30033
30791
28725
28871
28992
28439
28762
28983
28461
28404
29981
30086
30434
29823
31238
30915
30156
29803
29781
29546
28433
29323
28385
30967
29665
29425
28765
30305
30140
30052
30716
30687
31028
30341
30868
29384
29720
28867
29518
27859
29427
29053
28684
29602
30623
30517
30454
31072
31176
28847
29871
30451
29552
29484
29870
28922
30607
27180
29652
27854
30268
29362
29964
29697
30074
29429
30088
29972
29362
28390
29192
28650
27868
27344
28993
28586
29733
29272
31217
29011
30516
27126
29488
28712
30567
28253
29782
28610
28831
27415
28124
27773
28109
28552
29552
29267
29888
29788
29371
28863
30428
28384
28930
27054
29378
26942
28104
28397
28953
27173
29545
28348
29155
28803
28449
30023
28922
29662
28278
28460
29240
27967
28300
28393
28412
27131
29288
29199
29750
29334
30449
29897
29343
28982
28548
28655
27309
29005
27730
30059
28564
29266
28118
29628
29100
29444
29825
29678
29838
29799
30038
28859
28773
28589
28704
27781
28531
28747
27528
29286
29076
30743
30743
28863
30599
29840
29312
29359
28925
28962
27713
29179
26873
30619
29282
29415
27482
30315
28472
30339
28706
31390
30177
30865
29624
29685
28021
29157
28029
28492
27552
29919
27368
30105
28999
31142
28817
31996
30214
29836
28776
31574
28340
31047
28828
30735
30650
29828
28726
29191
29683
31196
29621
30943
30648
31491
30294
31958
29292
30333
27938
30596
27684
28375
29041
30101
28980
30262
30395
30209
30864
28089
28727
29764
30483
28916
29679
28879
29448
28061
28048
28455
28468
29622
29832
30779
30302
30623
29885
30022
30721
29796
29094
28881
29604
28189
28491
29934
29592
28402
29951
29109
30014
29407
28016
30894
30386
30512
29414
29254
29576
29089
28978
28646
29375
28672
30766
29764
31496
29287
32009
30934
31255
29726
30667
29223
29748
29476
29608
31737
31058
29435
29607
30456
30727
30027
31228
31274
32448
30326
32205
29237
30284
28020
29853
28021
29797
29324
29580
29648
31241
31067
30991
31417
32134
29431
30881
31747
30580
30551
30344
30208
31976
29008
30620
29307
31329
30752
30674
30752
31610
30796
31112
31379
30438
30035
29395
30232
29333
29904
30682
30458
30247
31305
31169
30999
31908
31847
31602
31352
32429
31120
31554
31249
31346
32386
31313
31075
29701
31284
31221
31277
31277
30582
32238
31439
31216
31147
30591
30350
28835
30615
28997
30089
30052
30239
29892
30977
29975
29926
30886
29508
29844
30110
30866
29520
29894
29139
29642
27783
28949
28959
28556
29579
30076
31210
29706
31097
30553
29634
30508
30285
29420
29073
29767
28117
28454
28787
29516
28128
30087
29502
29810
29299
28575
30101
30178
31067
29672
29333
29352
29651
28249
28222
28344
28571
29757
29411
30798
29297
30920
30163
30594
30560
31206
30097
30993
32001
31953
35133
36500
37422
38898
41335
42449
43804
44680
47287
48413
49767
51640
51776
52739
52767
54296
53073
53795
54916
54635
55141
55636
54059
51017
50667
47743
44690
41660
39476
34612
32605
29688
27413
26028
23454
24593
24111
27242
27845
29176
28655
31610
30967
31684
31579
31496
31046
30032
31051
29138
29447
30152
30042
30042
30547
31024
29996
31824
29198
29402
29435
30634
28937
29709
28689
29774
27483
28448
28004
28066
29179
29786
30363
29141
30764
30197
29542
28692
28958
28558
27755
28648
27921
30243
29482
28844
28894
29794
29926
29277
30374
29819
30830
29460
30922
28343
29278
27777
28929
26493
29206
27911
28096
28666
30044
29775
29853
30053
30915
28054
29871
29729
29792
28656
29896
28255
30096
27040
29615
27334
30530
29098
30110
30110
29326
30445
29130
30283
29898
29590
28200
29172
28489
28282
27286
29210
28679
29779
29052
31260
29349
31040
27871
29765
29138
30968
28667
29788
29158
28904
28548
28476
28862
28595
29964
30092
31031
30323
31629
30354
30549
31180
30199
29789
28864
30040
28600
28685
30337
29572
29451
30463
30594
30294
31250
29240
32227
30596
31923
28921
30177
29656
30317
29533
30602
29388
30114
30818
32134
31506
32062
32124
33162
31152
31874
30282
31756
29064
32159
28903
32880
30150
32194
29648
33243
30967
33216
31553
33112
31613
33284
32064
32340
30566
31811
30643
31063
30687
32120
29784
33041
31968
34838
31702
34301
32972
33391
32421
34351
31923
33265
32180
32882
32669
32056
32732
32244
33232
33856
33086
34340
33202
34062
33630
34668
33021
33556
32672
32880
31640
32182
32891
32539
33271
34374
34547
34278
35667
36336
34117
35074
35641
34392
34530
34053
34617
36452
33433
34765
33429
36080
35445
36143
35386
37520
35726
36813
36176
35867
34501
34880
35334
34543
33478
36061
35219
36066
35699
37760
35624
38206
33965
36514
35607
37575
34584
37121
34895
36609
33738
35245
34396
35688
35891
37555
37064
37399
37212
37548
36147
37752
35995
36300
34975
36218
34307
34546
35853
36090
34007
36236
34997
35946
35946
35166
33272
35809
34934
35831
33840
33628
33650
33819
32150
33021
32568
32696
33458
33708
34336
33140
34340
34226
33074
32578
32305
31687
31003
31723
30592
33612
32432
31495
30273
32151
30922
31377
30688
31993
31876
31084
31433
30036
29346
28549
28973
28339
29026
29250
28404
29390
29579
30236
29113
30643
30758
28194
29293
30429
28706
29170
28837
29048
30971
27680
28830
27547
29506
29130
29050
28749
30196
29312
28943
29316
28116
27592
27356
28128
26669
26444
28090
28292
28250
28820
29496
28395
29900
26140
27863
28372
29910
27817
29044
27713
28421
26961
27315
27639
27713
28774
29158
29851
29344
30074
29348
28827
29855
29053
28310
27012
28397
27440
28443
28568
28794
28469
29536
29264
28847
30260
28788
29299
29356
30269
28727
29397
28503
29194
27169
28841
28383
28003
29090
29652
30302
29023
30155
30162
29025
30090
29821
29020
28703
29496
27725
28984
27978
29450
27751
30043
29067
29780
28995
28401
29199
29600
30129
29383
28791
28712
28824
27628
27760
28525
28393
29459
29175
31054
28941
30712
28887
29554
29054
30005
28508
29064
28682
27803
29034
28929
28640
28197
29318
29307
29529
29351
30037
29553
29507
30543
28772
28872
27442
29249
27307
28426
28484
28600
28230
29608
28956
29382
29382
29783
29742
28917
29440
30005
28552
28059
28937
28420
29891
27975
28847
27419
29372
28627
29830
28363
30568
29268
29735
29000
29262
28147
27454
28152
27809
27423
29165
28170
28522
28966
29526
28287
30081
27727
28807
28436
30003
27702
28506
27303
28960
26455
28300
27042
27380
28284
29447
29741
28646
29342
29228
28071
29210
28604
28624
27720
28691
26614
26996
27535
28409
26650
29372
28124
28891
28329
27169
28518
28765
29471
28414
27824
28045
28425
27120
27189
27279
27744
28686
29079
29665
28728
29801
29858
27613
28265
29605
27948
28593
28114
28221
29136
26637
27903
27086
28742
28762
28428
29116
28949
28888
28560
29432
28062
28404
27421
29027
26517
26726
27301
28640
27852
29369
29586
29466
29125
27072
27593
29278
29110
28456
27988
28932
27442
28340
26381
28722
26448
30180
28498
31077
28531
30963
28216
30305
28600
29658
27768
28979
28310
28366
26062
30251
27812
28895
28412
30023
28442
30511
26468
31711
28202
31211
27787
29530
28025
29060
27648
29415
27808
28422
29014
30550
29544
30038
30184
31383
29272
29435
28609
28909
27456
28686
27107
30383
28811
28850
27913
29605
29272
29884
30015
30178
30693
29749
30467
28732
28994
28046
28516
27323
28512
28422
27829
28910
29937
30526
29628
29628
30400
31037
28399
29832
30008
29577
28957
29758
28459
30376
26981
29828
27445
30677
29322
30401
29459
30457
29184
30522
29604
29774
28450
29415
28695
28738
27223
29680
28785
30326
29293
31787
29099
31627
27250
29928
28988
30938
28166
30383
28704
29182
27900
28875
27932
28768
29271
30417
29926
30144
30136
29860
29428
30520
29426
28488
28128
29162
27931
27634
29058
29180
29184
29871
30294
29938
31368
28143
28975
29809
30732
29019
29770
29476
30110
28295
28068
28455
28333
29532
30084
31161
30345
31220
30606
30377
31073
30368
29300
29787
29945
28494
28041
30370
30474
29149
30922
30525
30920
30478
28856
31564
31181
32006
30162
30342
29923
29932
28792
29244
29267
29239
30403
30426
31518
29747
31372
31151
30498
29725
29866
29236
28828
29011
27644
30334
29774
28786
28085
29398
28716
29147
28901
30016
30354
29545
29984
28639
28605
27345
28430
27352
28052
28470
27875
28253
29351
29651
28972
30490
30892
28598
28986
30057
28648
29044
28513
28993
30558
27770
28874
27707
29556
29107
29555
29038
30364
29415
29979
29790
29011
28055
27532
28584
27676
26646
28552
28647
29179
29793
30773
30263
31934
28501
30438
31629
34126
33406
36162
36447
38829
38667
40274
41332
43345
45838
47781
49396
49866
49866
52289
53469
53843
55035
54567
53658
53715
54769
53203
52786
53908
51267
48653
47141
44301
41973
38415
33112
33823
30273
28871
24004
22956
23732
24475
24299
25315
26568
27187
28667
30124
31206
30548
31407
31534
30312
30987
30952
30085
29272
29894
28545
29260
27988
29459
27731
29962
28911
29463
28870
28422
28827
29426
29652
28742
28027
28388
27957
27374
27263
27838
27555
28713
28230
29946
27817
29449
27158
28531
27596
29232
27287
28066
27492
27465
27879
28225
27418
27956
28655
28977
28639
28717
29151
28934
28050
29874
27636
28049
26334
28727
26365
27636
27416
28245
26959
29206
28343
28714
28580
28895
28459
28784
29432
28408
27469
28787
27708
29239
27438
28309
26855
29313
28336
29527
28067
30398
28678
29672
28544
29116
27925
27257
28042
27665
27963
28872
28415
28738
29251
29892
29110
30439
28348
29446
28929
30236
28685
29474
28318
29363
27274
28837
28645
27832
29423
29977
31338
29734
30945
30205
29642
30005
30604
29419
29542
29456
28399
27894
29142
29361
28769
30241
29972
29906
29910
28394
29841
30013
31671
29780
29662
29502
30710
28703
29711
28846
29985
30004
31315
31094
30629
30629
30708
30691
29949
30922
30077
30425
29297
30705
28273
31479
29630
30610
28874
31821
29885
32105
29833
33140
30424
30649
32800
29916
31586
29348
31990
28664
30465
29930
32460
30358
32789
31761
32686
31932
30590
30029
32644
32106
32141
31362
31979
30344
31463
29640
32193
30094
33047
32039
34690
32769
35040
32424
34115
33456
34150
31934
32448
32090
32183
31179
34212
32489
32929
33528
34446
33836
34599
32446
35691
33326
34971
32828
33403
33824
33664
33516
33008
33299
32977
34471
34656
35346
34487
35632
35984
35245
34389
34397
34180
33649
34591
33604
35907
35160
34521
34237
35468
35124
35187
35957
35987
36878
35270
36660
34622
35403
33915
35035
33305
35389
34271
34576
34579
36313
36039
36560
36158
37836
34471
36284
35633
35788
34936
35957
34044
36554
32757
35404
32799
37116
34443
35821
34652
35921
33718
34980
33987
34100
32450
33208
32518
32335
30513
32716
31698
32802
31995
33940
31623
33541
28681
31425
30758
32520
29592
30961
29790
30020
28877
28918
28658
28879
29939
29719
30545
29769
29769
30296
29524
29063
30236
29066
28630
27465
28710
27168
27080
28422
27568
26991
28140
28006
28230
28947
27193
29634
28389
29110
26768
27237
27239
27848
26779
26303
26649
26104
27656
27700
29200
27767
28515
28168
27477
28287
28146
27062
27099
27972
26439
25793
27415
27306
26358
27898
27299
27856
27323
25749
28224
27437
28380
26637
26874
26840
27581
26162
26387
26464
26750
27814
27781
28873
27381
28664
28826
27992
27296
27614
26987
26834
27308
26484
29207
28314
27261
26579
28367
27829
28106
27428
28998
29133
28231
29060
27518
27332
26316
27686
26363
27116
27575
26824
27455
28412
28357
27798
29203
30271
27418
28292
28999
27954
28336
27897
28073
30367
27087
28466
26634
28916
28463
28965
27960
30019
28562
29088
28780
28310
27567
27182
27843
27062
26467
28034
28146
28008
28365
29464
28633
29789
26753
27735
28576
29833
27801
28869
28021
28309
27070
26859
27140
27239
28008
28579
29360
28896
29345
28888
28730
29557
28533
28030
27300
28156
26721
26342
28258
28184
27095
28372
27466
28297
28297
27405
26281
28803
28480
29035
27676
27264
27576
27740
26610
27038
27149
26940
28388
28039
29352
27957
29436
29482
29464
28167
28267
27254
26936
26958
26331
28842
28421
27295
26796
28200
27528
27984
28016
27775
27547
28160
28572
27876
26797
27373
26984
26568
25453
27243
27005
28181
27494
29493
27319
29428
26579
28476
27672
29080
26620
27906
26921
27101
26697
27528
26268
26504
26732
27966
27589
27639
27870
27680
27343
29018
26844
27224
25376
27960
25422
26795
26858
27506
26265
28174
26934
27775
27664
28112
28304
27870
28473
27353
27051
27554
26396
27996
26626
27080
25588
28395
27674
28551
27208
28716
27988
27980
26977
27786
26994
26105
27395
26444
27733
27622
27639
27246
28469
27873
27369
28317
27689
28286
28030
28768
27417
27612
27029
27514
26481
27568
27018
26510
27851
27948
29190
27204
28904
28726
28073
27852
28525
27297
27591
27503
27303
26589
26668
27189
26760
28496
28293
27812
29036
27136
28416
27954
29591
27182
28022
26952
28520
25925
27254
26479
28366
27516
29190
28922
28922
28922
28926
28828
27491
29437
28040
28833
27267
29215
26242
29036
26912
28467
26135
29263
27264
29853
27555
30467
27864
29686
28400
29111
26926
27688
27803
27896
26625
29133
27082
28572
28386
29717
27838
29983
28808
30212
28272
30183
27536
28990
27803
27500
27252
26228
27381
26679
28671
28523
29504
28276
29521
28319
28612
28943
28276
27977
27689
28544
27152
26531
29132
28616
27709
29293
28551
29214
28472
27112
30393
28706
29584
27972
28386
28770
28490
28586
28715
28740
28349
30310
29826
31128
29097
31466
31248
30742
29933
30382
28881
28888
28831
28809
31191
30947
29495
30030
30915
31221
30738
31448
31300
32644
30402
32144
29460
30626
28649
29788
27603
29757
28805
28888
28525
30516
29597
30313
30087
31570
27775
29594
29693
29720
28597
28900
28041
30010
26523
29061
27085
29444
28668
29166
29173
29806
28807
28577
29200
27928
27963
27430
27967
26882
26423
27601
27856
28408
28662
29617
28834
30009
26750
27960
28818
29836
28032
29114
28051
27740
27315
27042
27783
27492
28908
28730
29459
28760
28760
29289
27910
28515
28641
27815
27574
26844
28107
27068
27212
29561
29050
28502
30312
30703
32604
34022
33861
38401
38477
40957
40434
42106
43982
45232
46788
48471
49944
50751
53500
54642
55880
56119
57922
59263
58559
58230
57868
56094
52668
51949
47673
48359
43390
40215
34875
34193
30365
27408
24087
22313
23958
24773
26146
25552
25970
26744
27795
27136
27862
28591
28933
29958
30124
31637
30004
31799
30617
30356
29969
29905
28739
28640
28654
27697
29739
29004
28481
27570
28861
28570
29301
28542
30258
29525
29239
29752
28721
28342
26865
28625
27035
27710
28109
27702
28170
29043
28866
28653
29854
29927
28675
29159
29903
28558
28612
28359
28855
30337
27929
28496
27417
29684
29068
29479
28527
30572
29229
29474
29254
28575
28238
27572
28492
27138
27440
28840
28578
28709
29287
29714
29124
30436
27415
28574
29051
30024
28019
29195
28166
29039
27054
27865
27618
28100
28804
29797
30025
29589
30600
30020
29441
30279
29273
28808
28396
29358
27869
27779
28952
29163
27581
30110
28675
29824
29824
28721
28018
29519
29876
30083
29149
28428
29292
29242
28282
28119
28716
28080
30056
29284
31199
28947
31561
30041
30558
29224
30260
28702
29346
28922
28619
29983
30492
28759
29372
29834
30008
29989
30068
31064
31442
30199
31861
29421
30278
28178
30416
28461
29936
29511
30108
29812
31255
30474
30906
30959
32341
29842
31190
31216
30673
30286
30756
30142
29312
29914
29215
29859
30669
31596
31818
32101
32719
31766
31799
32888
31586
30916
30194
31356
29824
30165
31506
31298
30563
31864
31239
31662
32290
31248
34089
31524
33317
30924
31729
31258
31607
31825
31959
31343
31605
32384
33623
32879
33287
33868
34604
33200
33503
32906
33463
31145
33432
31400
34718
32698
33695
32105
34888
33108
34659
34012
35193
34268
34985
34747
34411
33209
33860
33224
33036
32984
34316
32576
35216
34156
36565
33684
36726
34706
35287
34196
36749
33786
35714
34129
35267
34232
34559
33946
34344
34684
35853
34420
36287
34303
36290
34482
37139
34476
35929
34378
36359
32752
34597
33532
35640
34397
35966
35712
35469
35286
34565
34226
34960
34493
34115
33635
34132
32517
33566
32525
33173
32068
34274
33072
33863
33188
33188
34700
32725
32894
33632
32151
31854
30421
32101
30084
30708
31231
30998
30342
31817
30494
31083
31441
30776
31693
30902
31957
30173
30762
29634
28845
29840
28907
28989
27971
30196
29660
30242
29194
31275
29834
30054
28711
29861
28287
27978
28429
27982
28743
29236
28276
28888
28726
29632
28769
30260
27416
29421
29375
29551
28741
27858
28996
27822
27850
27207
28352
27037
29594
28751
30444
28119
30552
29337
29564
27868
29383
27619
28088
27613
27432
29786
29011
27879
27483
28615
28473
29005
28652
29742
29817
28963
29319
28115
28039
26966
27648
26855
27688
28002
27027
28100
28941
29160
28325
29751
30105
27607
28368
29447
27883
28428
27962
28431
29774
26792
28329
27090
29074
29068
29105
28787
29886
29239
29123
29627
28348
27982
27283
28700
26482
26766
27892
28230
28332
28894
29649
29011
29850
26627
27884
29025
29877
28062
29040
28627
28630
26999
26507
27472
27320
28907
29048
30284
29574
30586
29376
29604
29977
29334
28344
28103
28659
27655
27253
29633
29004
27739
29088
28490
29333
29462
27175
30485
28746
29858
27821
28381
28598
28695
27360
28239
28052
27875
29032
29263
30246
29175
30894
30714
30034
29072
29088
28300
28109
28578
27794
30795
29362
28935
27512
29229
28655
29379
29565
29565
30398
30994
29638
30360
28464
28927
27601
28537
27110
28530
28270
27922
28349
29864
29945
29256
30464
30797
28391
29249
30034
28872
29075
28638
28681
30594
29128
28039
27845
29055
29165
29726
29090
30817
29892
29858
30488
28970
28746
27571
29074
27698
28282
28873
28284
28012
29349
28970
29040
30157
30552
29693
29266
29962
28735
28794
28808
29140
29971
28241
28443
27212
29375
29411
29532
28669
30608
29850
30181
29559
28985
28391
27678
28999
27712
27941
28966
28688
28586
29360
29447
29183
30289
27889
28856
28765
29820
27919
28821
27815
29200
27183
27932
27679
27752
28711
29593
29853
28821
29842
29636
28755
29884
29210
28900
27988
28964
26990
27110
27764
29028
27073
29550
28022
29642
28284
27656
28775
29728
29490
28664
27854
28591
28070
27422
27160
27989
27379
28894
28023
30608
28014
30204
28451
28972
27786
29212
27183
28050
27157
27218
28661
28881
27414
27930
28404
28723
28613
28690
29180
29500
28650
30131
27975
28573
26815
29025
26670
27937
27855
28057
28067
29239
28772
28104
29744
30376
28679
29256
29786
28094
28881
29154
28863
30167
28042
28436
27697
29426
29491
29207
28894
30334
30037
29693
29731
28748
28741
27447
29263
26994
27753
28490
29106
28392
29602
29130
29409
30120
30120
28260
28288
28882
31111
28291
29715
28393
28679
27670
29149
28057
28932
29294
30401
29651
29720
29756
31639
29304
30268
28919
30172
27385
30121
27124
31508
28630
30338
27851
31347
28564
31063
29295
31622
29936
31207
30016
30067
28638
29605
28140
29076
28098
29870
27592
30762
29585
32183
29478
32069
30723
30552
29836
32328
29478
31419
29962
30642
30540
29258
30136
29875
31136
31660
30628
31266
30398
31148
30163
32186
30188
30192
29714
30419
28913
28925
29587
30254
30784
31063
32362
30909
32498
29326
31238
31324
32412
30930
31846
31056
30762
30269
30275
30270
30595
31645
30959
31456
31670
32237
31321
31115
31784
30273
30339
28830
30723
28469
29377
30214
30540
28959
30933
29635
30596
30110
30099
31089
30693
30711
30064
29122
30056
28738
30411
28901
29799
28491
31094
29982
31374
29801
31833
30855
31403
30119
30695
29694
29414
29629
29222
30583
30775
29739
29944
30795
31303
30410
31175
30342
31526
30288
31419
29301
29896
28862
29286
27419
28964
28422
27973
29300
29986
31143
30036
31267
31603
30018
31228
31780
31341
32015
33117
33034
35669
35944
39356
39622
42422
43349
44967
46273
48690
50780
51422
53512
53570
54882
54799
55953
55395
56637
58037
57232
57948
58419
57062
53994
53279
53279
50512
46625
43312
40192
35288
34168
30064
27849
27067
23327
25180
24693
27816
28059
29304
29399
31197
31075
31874
32464
31482
31210
30897
31685
30007
29056
30743
30820
30812
31132
31768
31134
31922
28300
29408
30044
31125
29258
30408
29463
29903
28395
28343
28906
28715
30055
30570
31438
30465
30753
30248
30015
30508
29775
29251
28848
29645
28032
27453
29932
29434
28511
29904
29409
30191
29706
27608
30914
29764
30934
29063
29319
29134
29095
28538
28882
28910
28530
30022
30242
31189
29989
31240
31427
30650
29937
30240
29590
29056
29628
28694
31700
30392
29769
29028
30737
29998
30544
30535
31195
31921
30722
31528
29814
30128
28800
29796
28859
29944
29839
29812
30179
30790
31079
30389
32035
32344
29578
30893
31407
30285
30599
30396
30050
32336
28595
30399
28991
31100
30829
31310
30749
31761
30959
31549
31415
30553
29935
29794
30497
29479
28434
30707
30394
31344
31043
32225
31141
32675
28742
30666
31126
32520
30831
30711
30888
30870
31961
30570
30775
29307
31420
31087
32286
30672
32768
31826
32220
31679
31611
30583
30301
31009
30526
30842
31833
31390
31499
31767
32445
31749
33436
30743
32065
31623
33250
31361
32530
30902
32740
30078
31945
30743
31255
31739
33293
33340
32638
33173
33173
33572
31799
33628
32407
32584
31657
33317
31239
32005
31568
32984
30993
33784
32509
33714
32535
32610
32954
33712
34064
33172
32495
33452
33295
32594
32188
32974
33009
34182
33974
35492
34002
35776
34662
34812
34567
34492
33708
33960
33907
32808
35277
34069
34293
33368
35203
34284
35637
34673
36679
35357
36105
36377
35330
34650
34322
34898
34032
33841
35440
34153
35075
35154
35984
35006
36918
35462
36464
35548
37096
34561
36023
34571
36295
36347
35864
34613
35291
35553
36987
35287
36212
36201
37422
35213
37134
34880
36433
33532
36542
33257
35387
34392
36399
33961
36764
34601
36844
35724
34839
33914
36398
35229
34983
33966
34624
33396
33769
32226
33927
31409
34791
33195
35796
32512
35295
33065
33977
33199
33782
31612
32507
31683
31150
29909
32030
31364
30315
32500
30858
31552
31049
31919
31874
31441
31718
29834
29916
29206
29554
28296
28923
29083
28735
29367
30272
30154
30047
30973
30384
28163
29516
30460
28922
28832
28972
28271
29627
26796
29151
27243
29752
28661
29358
29063
29902
28988
29395
29534
29002
27926
28360
27767
27515
26775
28978
28292
29971
28797
30933
28408
31209
31209
26830
29538
28469
31070
27728
29778
27988
29066
27223
28604
27343
28479
28622
29983
29419
30365
30384
30510
29542
31396
29325
30004
27764
29940
27639
28924
29107
29484
27803
30578
28988
29748
29380
29230
30312
29646
30258
29128
28694
28908
28462
29057
28671
28725
27952
29562
29543
29532
29239
30975
30432
29652
29397
29066
29317
27732
29264
27638
29998
29180
29243
28280
29864
29445
29660
30342
30104
30480
29723
30549
29031
29328
28347
28981
27671
28772
28667
28036
29663
29554
30638
29504
30814
30438
29163
29959
30607
29371
29844
29807
28933
29171
28092
29491
28264
30173
29934
29788
30031
29259
29910
30244
30497
29125
29074
28904
29136
28149
27797
28732
29346
29898
29630
30960
29252
31078
28658
29676
29483
30450
29359
29566
29366
29499
31319
27946
29415
27935
30389
29842
30045
29453
30810
29769
30077
30016
29239
28655
28301
29165
28061
27238
29006
28951
29179
29491
30429
29325
30868
27056
28378
29382
30457
28358
29614
28923
29462
28073
27968
28630
28380
29490
29952
30663
30136
30637
30637
30024
29673
30473
29368
28984
28382
29444
27673
27271
29471
29090
27819
29862
29007
29691
29283
27364
30667
29471
30183
28385
28806
28864
28669
28261
28580
28344
27923
29620
29919
30504
29410
30905
31185
30052
29397
29649
29025
28491
29079
27876
31349
29478
29111
28160
30014
29492
29820
29577
30743
31041
29992
30397
28837
28846
28278
29118
27543
28684
28681
27869
28726
29776
29741
29590
30784
31198
28149
29644
30417
29177
29802
29736
29576
31050
27393
29304
27454
30024
29251
29972
29404
30968
29257
29892
29843
28906
28268
28465
28682
27714
26785
28802
28732
29313
29048
30553
28847
30749
26684
28668
28915
30528
27778
29355
28111
28916
27239
27648
27484
27936
28939
29960
29898
29990
29890
29643
29214
30704
28831
29063
27339
29166
28284
27731
29282
28673
28962
29121
30074
28718
30993
27704
29688
28921
30800
28231
29852
28281
30038
26946
28783
27532
28296
28727
29796
29949
29340
30078
30190
28641
30365
28932
29055
28275
29823
27417
27917
28418
29874
27575
30016
28482
29906
28835
28835
27980
29127
30017
30549
28838
28045
28824
28970
27794
27998
28592
28604
29557
29747
31033
29335
30838
30249
29914
29635
29738
28983
28844
29617
27844
30509
29433
29239
28292
30079
29112
30083
29239
31189
30033
30338
30586
29534
28559
28463
28836
28433
28172
29613
28287
29780
29486
30343
28964
30947
30248
29885
29370
31067
28555
30063
28609
30147
30504
29660
28946
29155
29652
30982
29379
30472
29996
31112
29551
31370
28516
30510
27573
30670
27151
29007
28506
30811
28440
31639
29663
31527
30586
29799
28808
31569
30532
31408
29930
31222
29740
30348
28645
30601
28916
31875
30497
33398
30167
32750
31016
32008
31364
32414
29923
31289
30408
29988
28655
31507
30482
30495
31478
31445
30978
31233
28995
31994
31104
32847
30623
30900
30786
31648
30644
30919
30346
30325
31776
31630
32218
31397
32230
31862
30397
31429
31863
30634
30675
30826
29677
30478
28670
30932
29107
31592
30573
30611
30435
30948
30188
31289
31203
30417
29238
30156
29202
29337
27787
30036
29341
31269
30015
32477
29456
32269
32269
28343
31188
29783
32305
28977
30957
29229
30183
28951
30121
29156
29964
30287
31308
30557
31352
31394
31462
30417
32526
29880
31239
28686
31680
28471
28957
29513
29809
28455
30806
29654
30292
30355
30775
31899
31762
32438
31144
31206
32354
31948
34174
34406
36366
37147
40508
41752
43480
42423
46474
47518
49056
50226
51512
52649
53218
55591
54488
56694
56344
56796
56794
57861
57481
56667
54746
52704
50406
47694
45825
41937
37386
34170
32255
28978
25993
23955
23416
25767
26952
28784
28037
30956
30758
30243
31673
32503
31580
32011
31564
30960
30284
30313
31076
29533
31600
30973
30709
30821
29777
30555
30661
31359
29964
29879
29496
29954
28601
28799
28974
29235
30084
29949
31331
29476
31175
29413
29914
29685
30233
28819
29545
29362
28353
29408
29125
28681
28429
29852
29866
30307
29658
30952
30189
30410
30583
29505
29128
28728
29296
28059
26872
29367
29348
29912
29927
30946
29681
31309
27701
29034
29815
31288
29164
30264
29664
30114
28654
28076
28813
28949
30237
30630
31015
30518
31135
31135
30438
30393
31096
30170
30265
28898
30073
28382
28380
30663
30140
29118
30729
30033
30716
30575
29029
31649
30770
31265
29961
29940
30356
29850
29598
29679
29665
29014
30932
31003
31996
30827
32001
32319
31365
30613
30951
30258
29555
30522
29448
32331
30926
30900
30121
31602
30970
31415
31635
31952
32865
31495
32331
30649
30799
30016
30952
29444
31200
30731
30328
30965
31924
32516
31898
32781
33492
30550
31677
32214
31343
31358
31613
31199
32980
29450
31825
29995
32467
31867
32434
31983
32986
31927
32233
32423
31783
31445
31297
31399
30950
29789
31849
31775
32504
32109
33931
32215
34352
30423
32393
32222
33900
31307
32976
31638
32303
31011
31585
31453
31776
32733
33402
33625
33724
34115
33776
33226
34606
32658
33176
31503
33362
31431
32626
33151
33740
31996
34829
33491
34229
33889
33594
35399
34488
34838
33633
33162
34299
35025
32503
33780
32810
33721
34305
35287
35532
35172
35856
36098
35180
36360
34910
34478
33978
35360
33621
33736
35079
35602
34281
36222
35444
35773
35105
35105
34190
36535
35956
36977
34897
35223
35092
35514
33949
34935
34417
35135
35624
36070
36820
35554
36640
36767
35868
36132
35706
35371
34688
35803
34020
36975
35840
35644
34300
36871
34840
36307
34898
37161
35923
36000
35510
35350
33568
33362
33668
33639
32704
34475
32584
34042
33284
34752
32965
35533
34118
33847
32223
35096
31378
33841
31417
33508
32826
32300
30953
31488
31508
32865
31076
32195
32082
32824
30700
32706
29630
31309
28582
31467
28300
29716
29384
31160
29267
31519
30462
30829
30544
28935
28404
30343
30258
29379
29260
29239
29300
28235
27972
28831
28186
29825
29419
30754
29369
30868
29450
28999
29789
29270
28280
27919
28787
27244
26956
29007
29122
27552
29176
28359
29044
28701
26966
29796
29109
29995
28344
28495
28395
28733
27605
28029
28274
28079
29818
29225
30905
28891
30747
30157
30504
29102
30158
28420
29084
28669
28408
30373
30635
28603
29146
31044
29196
30512
29475
30102
29215
30722
30115
30207
28711
29685
28627
28851
27885
29757
28942
30792
29632
32004
29043
31658
28187
30301
29246
31269
28478
30174
29095
28960
29215
29528
28585
28893
29975
30121
30094
29295
30759
30759
29922
29748
30561
29219
28867
27649
29316
27660
28258
29350
28809
28884
29929
29563
29485
30215
29348
30505
29757
30762
29585
29375
29556
29171
29994
29023
29198
28537
30700
30190
29929
29452
31053
30494
30490
29913
29660
29690
28781
29822
28112
29645
29336
29730
29072
30279
30040
29975
30741
29729
29964
30098
30809
29501
29710
29187
29600
27867
29004
28743
28396
29964
30528
31624
29560
31387
30617
29585
30464
30763
29728
29815
29827
28559
28523
28644
29631
28328
30275
29811
29680
29679
28665
29564
29715
30803
29399
29124
29097
29413
28040
28503
28816
28865
30047
29956
31268
29134
31150
29157
30248
29591
30171
28879
29319
29379
28129
29463
29225
28936
28004
29758
29382
29959
29189
30811
29800
29983
30665
29249
29076
27697
29648
27604
28653
29143
28618
28919
29978
29691
29500
30612
30436
30045
29688
30584
28788
29866
29167
28986
28027
27708
28529
28442
29589
30063
30504
29834
30522
29552
29574
30439
29457
29149
28031
29448
27314
27644
29758
29208
28272
29708
28966
29612
29376
27967
30818
29350
30518
28624
29047
29280
28556
28290
28561
28534
28078
29877
29774
30617
29516
30708
30621
30105
29356
29602
29001
28555
29332
28038
30718
29520
29119
28669
29862
29572
29759
30120
30393
30393
31017
29545
30884
28763
29524
27954
29118
27794
29208
28485
28078
28673
29887
30177
30205
30724
31114
28500
30356
30317
29680
29458
30055
28748
30643
27204
29940
27087
30637
28787
30234
29312
30493
29295
30313
29946
29336
28577
29014
28834
28068
27191
29186
28541
29844
28989
31118
28875
31216
27100
29387
28910
30488
27893
29698
28439
29188
27783
28344
27938
28371
28871
29892
29655
30103
30007
29656
29378
30691
28575
29148
27504
29161
27026
28133
28734
29057
28036
29853
28511
29548
29271
28586
30609
29417
30331
28848
29168
29192
28493
28641
28987
28567
28075
29702
29851
30085
29754
30500
30887
30042
30023
29106
29384
27851
29820
27935
27748
29845
29414
28330
29741
29525
29468
29748
27627
30549
29502
30909
28383
29208
28610
29653
27356
28949
27854
28843
29176
30325
30342
29965
30608
31367
29546
30619
29616
29943
28350
29936
27424
31467
29230
29751
27556
30932
28544
30784
28579
31675
30122
31006
30160
30290
28396
29513
28760
29874
28608
31116
28444
31129
30070
32655
30047
33272
31398
31151
29978
32759
29061
31729
29652
31575
31697
30457
29804
30490
30899
32119
31216
31969
32125
32259
31307
32771
30746
31187
29322
31510
29574
30001
31146
31707
31160
32255
32573
31982
33372
30157
30157
30792
31437
32473
30369
31217
30373
31076
29202
29388
29274
29747
30558
31216
32106
31474
31883
31220
30706
31932
30907
30109
29431
30451
28305
28412
30000
30530
28688
30825
29575
30629
29809
29120
31039
31032
31287
30060
29319
30256
29194
29560
28594
29751
28774
31391
30256
31961
29853
32325
31255
31928
29964
31339
29471
29975
29442
29364
31223
31338
29585
30012
30376
30841
30397
30574
30863
31860
30034
31593
29467
29758
28311
30287
29105
30308
30603
30746
31142
32849
33395
34639
37137
36091
39057
40215
42276
41996
43746
44614
45136
47644
49264
49911
51483
54299
54969
55984
55616
57068
56252
56935
57594
56351
54322
51645
51026
47431
44816
43533
38888
36041
33822
31893
28511
26925
24669
25782
26222
27882
26594
28337
29008
29562
30952
30609
30946
30405
31882
31849
31895
31462
32702
32099
31399
31371
30567
30321
28838
30412
28810
30069
29976
30149
29553
30826
30420
30167
31058
29807
30180
29866
30984
29498
30412
29093
29616
27735
29080
28639
28235
29759
29844
30873
29632
30879
30624
29458
30644
30207
29236
29369
29620
28421
29008
28447
29613
28167
30699
29852
30158
29945
29455
29986
30504
31005
29977
29252
29455
29770
28146
28701
28942
28901
30438
30012
31510
29404
31640
29817
29817
30175
29908
30740
29337
29780
29719
28799
30040
29829
29491
28774
30637
30315
30783
30232
31407
30830
30874
31440
29932
29890
28501
30498
28674
29680
29964
29632
29880
30978
30871
30485
31471
31320
30988
30643
31445
30128
30439
30401
30266
31944
30161
30206
29265
31565
31197
31604
30856
32764
31977
32055
31352
31024
30576
29818
30863
29357
29522
31344
30736
29818
31519
30726
31313
31081
29732
32627
31436
32164
30702
30704
31248
30351
30642
30408
30504
30062
32166
31939
32752
31559
33788
33303
32720
31651
32369
31265
30874
31468
30778
33308
32525
31351
31239
32514
32892
31992
32576
32632
33836
32406
33701
31293
32295
30830
32024
29903
32332
31671
31843
32131
33848
33814
33902
33925
34972
31761
33656
33607
33288
33007
33576
32167
34668
30743
33737
31352
34481
33092
34352
33584
34568
33382
34775
34181
33662
33025
33380
33279
33062
31669
33972
33797
34286
34316
36066
34424
36051
32407
34303
34551
35907
34130
35130
34775
34687
33769
33622
34540
33960
35895
35753
36553
36106
37063
35998
36603
36547
36219
35270
34805
35365
34410
34062
36138
34997
34801
35760
35755
35548
36583
34496
37963
35219
37571
34924
36216
35686
36229
34876
36353
34795
35824
35852
37219
36330
37191
36550
38072
38072
35742
36791
35009
36452
33654
36587
33285
37830
34625
36532
33318
36989
33813
36175
34157
36551
34728
35821
34498
34658
32680
33713
32210
32759
32023
33730
31520
34274
32119
34240
32290
32628
33677
31952
32857
31737
31815
30567
31708
29497
32502
30983
30925
29333
31484
30172
31191
30093
31706
30857
30689
30938
29355
29136
28216
29571
28144
28310
29015
28536
28567
29644
29751
29259
30660
30568
29033
29364
30143
28653
28846
29024
28917
30816
28379
29268
27382
30294
29849
30480
28925
31308
29695
30476
29736
29634
28235
28606
28749
28443
27264
29684
28692
29752
29357
30488
28879
31416
27641
29334
29015
31432
28270
30259
28131
29733
27283
28903
27885
29100
29142
30508
30646
30496
30375
30675
29140
30681
29523
29693
28575
29872
27607
28224
29185
29639
28157
30087
28917
29545
28867
27372
29626
29235
30597
28430
28795
28846
29495
27708
28586
28515
28614
29822
29943
30761
29254
30932
30133
30011
29611
29944
28727
28472
28891
27865
30563
29695
29186
28740
30194
29372
30075
29649
30928
30854
30316
31292
29574
29131
27950
29126
28191
28731
29549
28832
29316
30248
30283
29818
31017
31199
29334
29837
30807
29517
30178
30009
30299
31910
29252
29905
28973
31088
30595
30644
29724
31257
30417
30417
30616
30647
29762
29412
28522
29487
28280
28778
29677
29512
28967
29995
29800
29624
30209
29174
31029
30139
31051
29202
29444
29623
29217
29430
29076
28973
28599
30188
29981
30367
29807
31312
30465
30376
30071
29588
29334
28794
29772
28288
30335
29441
29486
28971
30501
29868
29855
30418
30024
30508
29987
30840
29204
29491
28964
29179
27893
29132
28936
28539
29841
30387
30865
29630
30716
30412
29379
30208
30473
29469
29280
29700
28669
29504
28010
29592
28140
30360
29495
29544
29513
29390
29447
29916
30263
29306
29159
28938
28976
27645
28113
28922
28815
29828
29430
30641
28925
30517
27906
29465
28894
30094
28239
29239
28449
28304
28960
28524
28043
27739
29330
29382
29346
29142
30371
29204
29214
30195
28566
28886
27327
29060
27103
28377
28815
28793
28235
29819
29095
29122
29460
29255
29943
29296
29992
28965
28362
29370
28162
29967
28416
28936
27569
30139
29188
30380
28858
31156
29704
30136
28912
29465
28630
28260
28780
28168
28751
29324
28575
29178
29226
29785
28669
30971
28803
30156
28871
30477
28168
29640
28254
29473
27063
29234
27709
28371
28593
30044
30632
28815
30939
30111
30176
28793
29614
28255
28533
28599
27763
30039
29497
28256
27917
29524
29382
29324
29737
30487
31348
31348
30027
31006
29295
29500
28495
28754
28110
28840
28974
28460
29074
29938
30215
29500
31088
30692
28582
28957
30390
28728
29641
29122
29685
30749
27741
29034
28069
29931
30027
29536
29955
30130
30556
29512
30342
28366
29183
27656
29583
26743
28007
28051
29769
28413
30437
30040
30326
30130
27795
27877
30195
29777
29206
28889
29714
28239
28945
26874
29398
27370
30743
29016
31865
29231
31906
29124
31410
29720
30831
28125
29783
28835
28788
27133
31158
28447
29578
29340
30291
29121
30958
27296
32423
28972
32145
28418
30440
29060
30348
28120
29815
28520
29164
29672
30977
30615
30695
31647
32202
30276
30380
29928
29723
28444
30085
27934
31433
29938
29844
28658
30573
29864
30449
30654
31727
32282
31111
31662
30079
30373
29107
29791
28643
29936
29482
29479
29960
31288
31202
31580
32130
32568
29698
31470
31689
31186
30812
31756
31063
33385
29109
32302
29814
32906
31526
33144
32019
34114
31987
33656
32894
32752
32315
29831
32804
30042
31694
30823
31906
30191
32490
31223
32049
32105
33086
31216
31988
31858
30999
30362
31640
30327
32778
29863
30965
29055
31364
30361
31635
30133
32549
30900
31326
30341
30039
29397
28740
29819
28545
29050
29629
30149
29427
30501
30402
30068
31235
29169
29685
29685
30115
31107
29684
30247
29343
30377
28563
29126
28880
29146
30395
30551
31334
30000
31751
30955
30024
30675
30328
28944
29266
29551
28181
28106
29185
30245
29133
31121
30839
30994
31269
30405
32798
33515
35310
35306
36926
38446
40482
40065
42020
43160
44613
47518
48761
51646
51279
54592
55011
55654
55657
56082
55319
55400
56027
54744
56695
53923
51626
48676
48104
44276
42615
37938
37140
33544
31243
28602
24804
23929
23346
26120
25075
27009
28482
28831
29587
31405
31543
31969
33099
33269
31229
31540
32454
30668
30460
30536
30676
32400
29770
30406
28949
30973
30410
30638
29769
31705
30929
30928
30460
29674
29079
28197
29360
28421
28152
29381
29746
29649
29990
29894
29516
31360
28647
29544
29965
31317
29115
30026
28832
29836
27905
28576
28483
28888
29860
30340
30513
29674
31468
31238
30548
29852
30077
29438
28719
29549
28498
30780
29870
29628
29177
30365
29959
29871
30868
30488
31250
30375
31413
29521
29605
29032
29614
28299
29714
29336
29138
30148
30565
31100
30636
31255
31540
29353
30516
30874
29883
29772
30504
29244
31018
28246
30339
28511
31377
30328
30799
30509
30940
30419
31301
31570
30733
29955
30191
30029
29182
28703
30254
30077
31225
30736
32300
29861
32342
28947
31011
31011
30062
32061
29364
31050
29806
30249
29317
29930
29403
30039
30808
31481
31162
31455
31908
31317
30950
32283
30366
30860
29175
30984
28922
30068
30590
30890
29860
31873
30763
31304
31122
30892
32285
31543
32079
31292
30647
31360
30615
31811
30604
31228
29995
32317
31891
32691
31453
33480
32164
32704
31386
32105
31501
31244
31725
30784
32380
32146
31998
31833
32858
32744
32291
33617
33100
33508
32735
33878
32406
32454
31949
32394
31519
32725
32174
31590
33727
33880
35181
33695
35089
34786
33461
33902
35039
33631
34244
33756
33315
33473
32813
33913
32994
34604
34736
34371
35025
33992
34904
34664
35992
33852
33922
33730
33802
33810
33635
35395
33783
35759
35571
36631
35060
37599
36836
35615
35084
37448
34899
36823
35352
37063
36996
35813
35217
35939
36292
37683
36090
37047
37090
37835
36312
37807
34991
36747
34576
37279
33976
35607
34862
37130
35568
37501
36808
37973
37057
35464
34889
37228
36652
36387
36075
36742
35865
35034
34015
35656
34596
36796
36126
37360
36253
37462
35274
35699
35740
35086
33979
33881
34158
32279
31871
33774
33196
32183
33880
33062
33176
32851
30722
33461
32292
33132
31723
31267
31060
31101
30248
30278
30519
29914
31431
31481
32295
30921
32117
31669
31363
31363
30092
30669
29432
29232
29588
28651
31015
30634
29109
28909
30087
29806
29507
30086
30173
31611
29632
30839
28195
29412
27234
29075
26945
29032
28286
28532
28189
30417
29434
29927
29818
31280
27412
29404
29813
29560
28389
29679
28327
31520
26895
29699
27198
30804
29279
30159
28876
30830
28921
29770
29379
28748
28186
28115
28321
27301
26467
28262
28241
28655
28921
29878
28782
30272
26437
27926
28914
29934
27982
29088
28008
29132
27331
26700
28250
27473
29220
29542
29436
28964
30541
30016
29576
29536
28935
28667
27515
29094
27674
29033
28823
29206
28400
29737
29636
29251
30603
28955
29590
29422
30290
28590
29073
28347
29188
27639
28874
28785
28021
29719
30099
31267
29516
30851
30351
29579
30284
30155
29074
28879
29637
28493
28668
28639
29699
28008
30307
29829
29880
29422
28794
29794
29892
30773
29496
29137
29359
29616
27999
28565
29176
29060
29959
29808
31110
29303
30785
29298
29823
29543
30052
28759
29021
29122
28088
29725
29040
28598
28233
29751
29460
29611
29154
30276
29528
29831
30142
28913
28689
27506
29453
27774
28657
29418
29108
28905
30190
29799
29699
30422
29964
29999
29818
30518
28918
29221
29202
29419
30155
28896
29056
28352
30657
30199
29428
28953
30764
29969
29916
29916
29899
29248
28962
27664
29198
27800
28394
29310
29443
29064
29882
29971
29344
30564
28473
29269
29324
30466
28661
29404
28497
29376
27321
28652
28350
28052
29072
29696
30359
28947
30037
29827
28835
29852
29440
28739
28475
29288
27598
28146
28630
29368
27526
29865
28788
29299
28343
27940
28667
29284
30703
28744
28894
27876
28628
27301
28923
28109
28333
28675
29934
29699
29464
30025
30328
27866
29454
30052
28924
28518
29312
28405
30814
26889
29554
27380
30354
28845
29670
29056
30701
28830
30004
29730
29345
27943
28596
28078
28045
26588
29171
28150
29544
28866
30808
28250
30750
26258
29001
28351
30484
27594
29978
28376
28949
26306
27420
26933
28048
28730
30015
29122
29835
29420
29600
29097
30357
28437
28998
27312
29241
27076
27797
28961
29126
27443
29653
28594
29284
28863
27669
30414
28719
30349
28338
28545
28852
28411
27936
28520
28217
28095
29618
30059
30100
29914
30544
31364
29648
29371
29112
29156
27788
29425
27477
30965
29311
29425
27993
30384
28907
29814
29106
30852
30554
30140
30090
29221
28386
28506
27966
27982
28355
29325
27621
29956
29425
31034
29332
31547
30006
28987
28818
31276
28510
30196
28796
29385
29724
28723
28692
28847
29536
30879
28875
31008
29748
30941
29074
29074
31519
28177
30452
27800
30510
27339
29087
27913
30345
28748
31063
30583
30887
30034
29066
28634
30540
29977
29903
28952
30154
28633
29581
27656
29791
27735
30023
31367
30101
30835
30660
31566
30325
31057
29199
29971
28368
30342
28062
28535
29154
29966
29464
30688
30364
30108
31305
28416
29202
29754
30646
29195
29846
28966
29811
28477
28927
28863
29155
30491
31216
31979
30661
31719
31051
30638
31344
30631
30428
29756
30702
28863
28909
30103
30946
29167
31696
30447
32127
30704
29915
31075
31981
31724
31361
30087
31669
30859
30738
30630
31322
30056
32793
31960
34203
31759
34834
34226
34434
31369
32849
30842
31861
30856
30705
32167
32528
31235
30525
31301
31982
31103
31529
31710
32354
31801
31999
30153
31131
28706
30416
28374
29965
30567
28737
29396
30926
30640
30289
31204
31374
29383
29724
30831
29405
29800
29426
30179
31398
29223
29751
28439
30383
30447
30457
30155
31218
30742
30829
30779
29676
29395
28788
30303
28626
28562
29484
29906
29892
30753
30798
30522
31389
28144
28783
29872
30344
28873
29669
29199
29819
29101
29064
29760
29393
31502
31746
33800
33220
35425
35654
37221
39676
40215
40904
42029
43894
43676
44466
47984
49648
49721
52782
53909
55273
55315
54084
56292
56196
56196
57592
55752
55608
53699
52094
48978
47568
44855
40969
39329
36030
34966
30951
29917
26568
24082
25768
26933
26444
27372
29140
28691
30290
29145
31875
30365
32738
32138
31906
31966
31058
31417
31599
32225
30584
30269
30068
29908
29546
29029
29417
29279
30064
30047
31597
29791
31370
28730
30085
29904
30951
28782
29506
29330
28717
29031
28680
28919
28362
29933
29761
30081
29988
30713
30102
30408
31078
29573
29538
28226
29932
28360
28786
29508
29529
28743
30422
29407
29612
30296
29802
31186
29853
30651
29096
29439
29577
29231
30360
29259
29468
28483
30190
30049
30389
29861
31291
31311
30863
30455
30174
29811
28548
30087
28830
30417
30263
29799
29793
30581
30338
29906
31316
30511
31012
30311
31462
29685
30166
29272
30416
28687
29926
29450
29385
30317
31050
31449
30540
31432
31626
29731
31168
31328
30452
30180
31020
29503
30317
28855
31076
29000
31807
30571
31397
30595
30576
30602
31478
32018
31116
29793
30743
29851
29796
29003
30433
29828
31532
30672
32948
30237
32596
29818
31370
30455
32111
29632
30962
29987
30088
30087
30596
31418
29229
32461
31185
32066
30750
33139
31280
32396
31711
31645
30511
30842
31043
30408
29032
31694
31138
32071
31357
33048
31375
33682
29264
31039
31691
31691
33191
30968
32452
31289
31786
30413
30576
30921
31353
32651
32894
33805
33221
34100
33184
33116
34000
33568
32264
31863
32619
31402
30920
33418
32793
32381
33689
33302
33298
33447
31485
35334
33756
35653
33262
34359
33481
34147
32645
33868
33070
33871
34424
35564
35312
35454
35544
37058
34953
35434
34722
35388
33542
35457
33199
37812
35426
36030
34013
37533
34832
37117
35293
38084
36720
37531
36459
36864
34914
36055
34716
35661
34670
36719
34408
37099
36074
38451
35907
38967
37333
36547
35822
38735
35885
37769
35776
37495
37452
36027
36328
36296
37296
37747
36664
37513
37105
37340
36805
37527
35809
36554
34978
35975
33650
33416
34957
35260
35009
35579
35608
35019
36573
32191
33890
34423
35445
33175
34141
32927
33188
31914
31518
31798
31698
32965
33018
33785
33264
33548
33002
32420
33432
31935
31492
30589
31478
29567
29620
31442
31055
29223
31759
30367
31236
30240
28998
31441
31109
31804
29679
30905
28931
30843
27774
29792
28416
29021
29165
30892
30911
30017
30531
30652
29022
30867
29765
29666
28786
30134
27755
28845
28358
30342
27689
30819
28894
30604
28746
28648
29072
30162
29466
29377
28100
29294
28493
27873
27382
28292
27785
29290
28843
30708
28531
30370
29215
28902
28639
28639
29428
28154
28680
28743
27632
29410
28574
28129
27747
29125
28716
29379
28901
29791
29344
29442
30328
28677
28524
27581
29012
27341
27906
28814
28155
28392
29632
29490
29066
30420
30307
29789
29074
30057
28405
29382
29082
29248
30074
28834
28786
28227
29970
29371
29508
28899
30644
30323
30062
29827
29106
29117
27924
29450
27979
28727
29440
29362
29176
30458
30267
29925
31216
28859
29528
29722
30208
29005
29807
28839
29784
27934
29104
28736
28548
29732
30215
31092
29808
31133
30535
29645
30418
30195
29224
29367
30078
28412
28572
29179
29550
28245
30309
29724
30120
29655
28634
29987
29880
30711
29269
28913
29250
29676
28216
28414
28816
28850
29809
29519
31255
29337
30778
29937
30086
29619
30339
28949
29593
29786
28655
30143
29837
29182
28411
30496
29897
30003
30005
30749
29824
30388
30812
29138
29036
28782
29508
28217
27874
29044
29155
29537
29674
30921
29302
31019
27573
29083
29616
30801
28507
29686
28790
29123
27915
27950
28190
28307
29860
29942
30335
30140
30607
29983
30057
30536
29494
29243
27576
29436
28007
27750
29251
28928
27797
29373
28621
29264
29460
27920
30788
29337
29337
30279
28500
28486
28877
28328
28602
28533
28547
27847
29755
29399
30056
29347
31350
30444
30108
29541
29605
28707
27924
28747
28037
30350
29296
28561
28432
29410
29360
28886
29662
29735
30744
28994
30540
28052
28930
27567
28682
26878
28790
27982
28318
28119
29715
29478
29784
30023
30389
27285
29816
29273
29218
28374
29236
28009
30346
26506
29297
26828
30244
28781
29588
28646
30170
28652
29867
29309
28798
27663
28434
27855
27840
26402
28731
27703
29152
28539
30406
28322
30552
26635
28741
28599
30429
27711
29488
27891
28419
27885
27976
28046
28249
29081
29658
29817
29700
30623
29180
29357
30371
29409
28726
27842
28480
27266
27454
29252
28726
27984
29385
29059
28863
29740
27983
31154
29192
30733
28218
29215
28759
28857
28152
27703
28786
27782
30307
29604
31047
28675
30718
29434
29828
29516
30506
28199
29135
28654
28003
26724
29316
28317
28836
29153
29967
28798
30471
27190
30585
28592
31489
27716
29943
28072
30628
27017
29814
27540
29889
29030
31283
29868
30442
29768
31298
29239
30616
30616
29222
30210
27980
30359
27136
31638
29486
30430
27928
31328
29104
31341
29216
32523
29956
31007
30774
30583
29186
29133
29411
28818
28640
29967
28376
30091
30124
30730
29448
31495
30938
29644
29441
30730
29281
30054
29422
29573
31085
28820
29443
28437
30173
29904
29998
29366
31500
30413
30823
30391
29769
29700
29200
30357
28913
28652
30385
30040
30639
30771
31693
30449
32290
29463
30478
30047
32035
29481
31645
29847
31512
28781
30066
29235
30034
30411
32541
31931
31772
31810
33068
31439
33114
31757
31955
30517
32584
29879
30912
31459
32653
29897
33044
30962
32440
30586
30377
31382
32179
31875
31096
30104
31081
30200
29792
29565
30240
29278
31313
30831
31842
29909
31707
30732
30546
29589
30146
29233
29192
29449
28105
30767
30051
29508
28382
30365
30090
30086
30120
30208
30156
30180
30612
29554
29435
29169
29506
28586
28365
29256
29719
30036
30113
31493
29879
31382
28446
29956
29757
30587
29021
29560
29378
28717
28782
28359
28348
27892
29708
29653
30528
29956
31636
30310
31093
31093
31627
30885
30286
29847
31414
30855
32511
34742
36770
37810
40204
41008
42563
44461
45174
48276
48482
50855
50738
52088
54156
54801
55208
55523
55654
55639
57442
57492
57451
55919
54593
52893
49038
46299
42868
39840
34780
34008
29768
29654
25519
24522
24441
26094
26485
27184
29063
29308
30449
30277
32010
30915
31240
30644
31340
29838
31083
30551
29698
30760
31352
31667
30867
31653
31573
29443
30742
31041
29921
29697
30013
28819
29926
28170
29830
28271
30416
30131
30097
30253
30272
30011
30540
30702
29370
29337
29244
28883
28162
27937
28765
28727
29631
29423
31048
29333
31325
28151
29773
29561
30697
28343
29476
28989
28821
28516
28991
28467
28440
29751
29787
30347
29838
30901
30056
30007
30857
29422
29452
28141
29759
28142
28901
29691
29580
28779
30253
29598
29954
30198
29616
30961
29982
31000
29343
30135
29086
30180
28263
28539
28486
28966
29866
30646
31143
30577
30926
30986
30335
31716
30176
29807
29095
30268
28387
28516
30090
30464
29087
30920
29612
30943
29673
28964
31240
30889
30889
31098
30040
29719
30324
30021
29074
29150
29517
28975
31096
30481
32183
30346
32422
31560
31416
30161
31082
29545
29906
29568
29525
31967
31615
30111
30172
31213
31035
30984
31337
32105
32888
31220
32642
30029
30963
29325
30847
29186
30808
30183
30236
30109
32031
31597
31962
32113
33327
30303
31994
31983
31632
31268
31717
31154
33644
29969
31990
29958
32648
32118
32710
32435
33648
32791
33119
33375
32001
32005
31305
32523
31160
31031
32200
32749
32402
33368
33730
33189
34310
31774
32096
33574
34127
32762
33356
33185
33010
32237
31608
32653
32139
34275
33705
35645
33836
35525
34032
34975
34811
35091
33344
33968
33649
33456
31983
35246
34229
34472
34821
35671
34760
36000
32730
37256
34728
37835
34094
35918
33900
35698
32942
35531
33794
36023
35457
37416
36122
37087
36574
38431
35724
37134
35609
36946
34400
37141
33924
38964
36154
37360
34541
36282
37802
36283
37518
35055
37655
36161
38548
35450
36587
35056
36705
33976
36041
34812
36203
36024
36919
37070
35895
36619
35082
35434
35557
35557
35770
34293
34652
34541
33260
34227
34077
33648
33131
34631
34367
34747
33634
34920
34089
34112
34880
33164
32775
31437
33069
30787
31808
31961
31843
31187
32598
31651
31620
32209
31762
31885
31627
31956
30912
30346
31030
30160
31905
29801
30518
28811
31796
30234
31252
29683
32031
30352
30980
29504
30104
28983
28612
29079
28676
29150
30006
28966
29532
29697
30297
29039
31502
28804
29985
28803
31058
28247
29801
28149
29619
26967
29178
28115
27920
28611
29903
30195
29341
29978
29637
28659
29449
29428
28618
28503
29040
27447
27730
27630
28616
27393
29274
29000
28915
28578
27799
28678
28806
29675
28319
28090
28029
28194
27002
27399
27949
28062
29063
29096
30476
28722
30211
28805
28937
28655
29653
28141
28535
28507
27422
28847
28629
28037
27748
29484
29144
29817
28674
30103
29168
29711
30289
28967
28936
27592
29398
27780
28456
29141
28681
28691
30140
29687
29403
30519
30248
29874
29363
30470
28727
29772
28723
29351
27856
27658
28185
28351
29606
29880
30677
30346
30880
29926
30125
30125
30548
29949
29313
28624
29382
27757
27766
29981
29265
28327
30018
29445
29836
29709
28221
31195
29650
30524
29114
29331
29514
29169
28456
28859
28905
28346
29832
30120
30995
30173
31291
31143
30368
29584
30033
29425
28604
29580
28121
30772
29876
29519
28373
30056
29510
29804
29962
30978
31130
30239
30400
28951
29002
28020
28870
27834
28754
28609
28402
29243
30498
30830
30332
31136
31056
28831
29423
30545
29418
29660
29167
29142
30414
27584
29149
27853
29913
29667
29653
29700
30260
29351
29792
29972
28881
28481
28323
28941
27656
27364
28753
28672
29227
29180
30313
29090
30566
27047
28706
29116
30368
27939
29154
27971
28822
27229
27477
27807
27782
29174
29642
29706
29820
29791
29602
29249
30269
28959
28616
27348
28586
26711
27653
28957
28948
27069
29251
28252
29330
28898
27970
30511
29682
30148
28577
28159
28746
27832
28290
27510
28153
27086
29574
28628
30246
28345
30716
29886
29634
28126
29181
27841
28129
27975
27832
29839
29600
29408
26869
29954
28317
29638
28110
27928
28470
29562
29551
28808
27945
28948
28465
27489
27363
28242
27890
29262
28641
30675
28602
30849
29569
29526
28859
28859
29289
27959
28407
28871
27701
29561
28792
28587
27943
29289
28765
29559
28714
30691
29610
29905
30096
29086
28148
27567
28936
28096
28296
29576
28248
29154
29338
29939
28763
30562
29809
29751
29046
30431
28158
29565
28434
29802
29815
29293
28224
28612
29320
30349
29134
29989
30044
31255
29248
31026
28160
29791
26907
30459
27148
29952
28236
30531
28270
30962
28939
30554
29799
29865
28340
30694
29567
29877
28894
29932
28623
29055
27924
29733
27640
30997
29437
32243
28839
32310
29943
30344
29751
30988
28400
29526
29128
28815
27741
29826
29459
28868
29884
29517
29597
29412
28004
29548
29384
30495
28635
28834
28914
29445
27892
28408
28718
28753
29830
29658
31032
29371
30877
29864
30179
29715
30368
28858
29220
29259
28512
30111
30359
29126
28711
29730
29855
29749
30214
30754
31612
30142
32612
29367
30033
27729
30468
27781
29641
28999
29923
29023
31233
30080
31329
31112
32444
30080
31584
32736
29447
31464
29648
31004
28964
29789
29239
30342
30803
31812
31258
31894
31855
31497
31029
32676
30406
30800
29270
30837
28935
29348
31024
31055
29538
31241
30813
30805
31356
29948
33279
31486
33196
31067
31104
30923
30630
30502
30413
30310
30028
31255
31162
31589
31123
31825
32120
31050
30103
30103
30452
29997
28925
30107
27984
31532
29872
30012
28705
30754
29768
30169
30352
31110
30949
30195
30923
29420
29049
28623
28951
28063
29180
29026
28389
29711
30270
31161
30334
31344
31082
29239
30066
30961
29553
29810
29645
29115
30623
27590
29380
28572
30548
29885
30075
30548
31034
30099
30039
30461
29128
28917
28587
28500
27073
27251
28578
28983
29660
30147
31544
30443
32012
29007
30896
31671
33394
32487
35248
35911
37708
38119
39960
41315
42442
45318
46901
48835
50175
52054
52947
54343
56081
55468
55372
54340
55544
54334
55024
56171
54136
51627
50620
48301
45039
43323
38073
37995
33153
32300
27318
25261
23998
23741
24648
25604
26587
26866
30026
30313
31584
31581
32710
32848
31970
31560
31400
30884
29684
30802
29064
31728
30236
29932
29182
30718
29663
30304
29307
28593
29991
29900
30477
29154
28598
29341
29272
27942
28054
28610
28019
29997
29581
30724
29171
30778
29758
30132
28883
29929
28305
28804
28830
27928
29979
29667
28451
28060
29392
29373
29588
29290
30448
30455
29498
30794
28958
29320
27327
29097
27213
28483
28369
28440
28422
30237
29543
29984
30439
31259
28960
30028
30053
29604
29151
29546
29190
31363
28013
29327
27227
30582
29268
30439
28861
31473
29346
30510
29528
29528
29680
28543
28523
29019
28592
27498
29578
29002
29592
29462
30781
29306
31761
27755
29487
28954
30896
28489
30292
28499
29988
27564
28657
28400
28733
29971
30672
31335
30473
30927
30621
29967
30923
30075
29458
29477
30035
28789
28274
30385
30186
28979
30812
30249
30644
30582
28992
31473
30957
32153
29583
30411
30264
31143
29000
29840
29637
29912
30812
31538
32028
31489
32159
32635
31261
31767
31161
31215
30182
31431
28994
32830
31099
31528
29645
32286
30546
32651
30863
33819
32137
32961
32114
32076
30456
31358
31028
31297
30538
32891
30655
33229
32487
34111
31612
35149
33373
33432
31884
32724
32887
32004
33328
31496
33250
31199
33671
31341
34821
32955
35159
33334
36125
33432
35372
34542
35010
33092
33594
33667
33387
33009
34833
34054
34047
34742
34839
34688
35761
34468
36581
35005
36314
34187
34509
34705
34507
34624
34805
34936
34184
36083
35590
36520
36244
37430
37205
36952
36466
36441
35831
34913
36048
35312
36958
36650
36427
35812
37154
36743
36819
37834
37494
38264
36973
38533
35983
37229
35930
37396
35287
37911
36056
36872
36668
38608
38039
37873
37765
38846
35973
38154
37603
37538
36213
37419
35433
37531
34487
36987
34646
37804
36017
37099
35860
37094
35321
36572
36001
36001
35621
34884
34550
33603
33150
32268
33552
33453
34083
33408
35215
32933
34430
31652
32966
32576
33164
31107
31613
31255
30440
30351
30326
30294
29633
31140
30812
31554
30906
32310
30918
31447
31526
30441
29516
28187
29558
28250
28404
29207
28584
28358
29485
29167
29127
29729
28552
30429
28894
30405
28228
28415
28246
28093
28336
28182
28061
27603
29047
29061
29129
28934
29800
29943
29096
29001
28712
28631
27006
28450
27000
29110
28376
28569
27942
28934
28166
28226
27917
26129
29395
28466
29862
27807
27871
28056
28347
27156
27592
27724
27658
29086
29171
30152
28679
29846
29761
29363
28522
29449
28085
27706
28245
26957
29724
29028
28390
27764
29643
28631
29084
29088
30487
31038
29677
30026
28540
28611
27396
28465
27170
28123
28458
27994
28714
29848
29594
29240
30401
30776
28485
29398
30315
28924
29191
29144
29079
30824
27965
29164
27991
30238
29601
29760
29169
30833
29785
30047
30006
29293
29050
28516
29512
27864
27652
29048
29261
29401
29873
30662
29528
31031
27494
28564
29351
30635
28631
29746
28615
29202
27633
27579
28315
27997
29567
30078
30575
29848
30476
30332
29623
30469
29681
29120
28376
29239
27575
27296
29453
29080
27943
29576
29017
29377
29135
27475
29984
29330
30007
30007
28604
28803
28982
28953
27948
28257
28446
28063
29763
29673
30822
28892
30502
30078
29450
28889
29454
28391
28633
28643
27652
30056
29776
28090
27966
29359
29242
28850
29300
29786
30747
29057
30076
28232
28769
27070
28628
26619
28520
27970
28022
27910
29788
28899
29272
29733
30879
27585
29359
29720
27445
29120
28015
27690
27463
28482
27572
27810
28507
29310
28748
29219
29684
29005
28760
30038
27917
28572
26867
29207
26883
27969
28281
28336
27205
29168
28443
28551
29181
28724
29568
29017
29598
28418
28344
28796
28236
28928
28255
28386
27527
29092
29233
29494
28835
30194
29831
29698
29445
28739
28951
27232
29197
27035
29246
27999
28671
28062
29326
28469
28946
29592
29611
29484
29768
30118
29351
28763
28914
28264
27626
27742
28350
26832
29415
28648
31095
28382
30955
29486
30131
29007
30979
27925
30084
28766
29066
28073
28908
28376
28735
29254
30464
28661
30303
27761
30500
28849
31486
27960
29968
27866
30095
26852
29097
28156
29749
28608
30364
30048
30050
30053
29376
28849
30410
29507
29327
28740
29984
27915
29693
28436
29394
27656
30072
29032
30271
28827
30863
29328
29869
30116
30116
29194
28521
27705
29065
27592
28226
29007
28335
28525
29554
29407
29230
30263
30026
29920
29518
30475
28716
28876
29383
29148
30178
28990
29324
28108
30180
29659
30537
29164
31208
30560
30825
29675
30146
28895
28548
29332
28791
29053
29775
30123
27827
30723
28771
30576
29058
28515
31182
30577
30095
29464
28683
29872
28868
29138
28718
29547
28157
