ECG (500 Hz)
20.1010
20.1010
20.1010
20.1034
20.1034
20.1034
20.1034
20.1058
20.1058
20.1058
20.1058
20.1058
20.1058
20.1058
20.1082
20.1082
20.1082
20.1058
20.1058
20.1058
20.1058
20.1058
20.1058
20.1058
20.1058
20.1058
20.1058
20.1058
20.1058
20.1058
20.1058
20.1058
20.1058
20.1058
20.1058
20.1058
20.1058
20.1058
20.1058
20.1082
20.1082
20.1082
20.1082
20.1082
20.1082
20.1082
20.1082
20.1082
20.1082
20.1082
20.1082
20.1082
20.1082
20.1082
20.1082
20.1106
20.1106
20.1106
20.1106
20.1106
20.1106
20.1106
20.1106
20.1130
20.1130
20.1130
20.1130
20.1130
20.1130
20.1130
20.1130
20.1130
20.1130
20.1130
20.1130
20.1154
20.1154
20.1178
20.1178
20.1202
20.1226
20.1250
20.1274
20.1298
20.1298
20.1322
20.1346
20.1370
20.1370
20.1394
20.1418
20.1418
20.1442
20.1466
20.1490
20.1514
20.1538
20.1563
20.1563
20.1587
20.1587
20.1587
20.1587
20.1563
20.1563
20.1538
20.1538
20.1514
20.1514
20.1490
20.1490
20.1490
20.1466
20.1442
20.1418
20.1394
20.1370
20.1322
20.1274
20.1226
20.1178
20.1130
20.1082
20.1058
20.1034
20.1010
20.0986
20.0962
20.0962
20.0962
20.0938
20.0938
20.0938
20.0938
20.0938
20.0962
20.0962
20.0962
20.0962
20.0962
20.0962
20.0962
20.0986
20.0986
20.0986
20.0986
20.0962
20.0962
20.0938
20.0913
20.0889
20.0865
20.0865
20.0889
20.0986
20.1130
20.1370
20.1755
20.2260
20.2933
20.3702
20.4615
20.5577
20.6587
20.7548
20.8438
20.9159
20.9663
20.9904
20.9856
20.9495
20.8870
20.8005
20.6995
20.5889
20.4784
20.3750
20.2813
20.1995
20.1370
20.0889
20.0553
20.0337
20.0192
20.0096
20.0072
20.0096
20.0120
20.0168
20.0192
20.0216
20.0264
20.0264
20.0288
20.0313
20.0313
20.0337
20.0337
20.0337
20.0337
20.0361
20.0361
20.0361
20.0361
20.0385
20.0385
20.0409
20.0409
20.0409
20.0433
20.0433
20.0433
20.0457
20.0457
20.0481
20.0481
20.0481
20.0481
20.0505
20.0505
20.0505
20.0505
20.0505
20.0505
20.0505
20.0529
20.0529
20.0529
20.0529
20.0553
20.0553
20.0577
20.0577
20.0577
20.0577
20.0577
20.0601
20.0601
20.0601
20.0601
20.0601
20.0601
20.0625
20.0625
20.0625
20.0625
20.0625
20.0649
20.0649
20.0649
20.0649
20.0673
20.0673
20.0673
20.0673
20.0697
20.0697
20.0697
20.0721
20.0721
20.0745
20.0745
20.0769
20.0769
20.0793
20.0793
20.0817
20.0817
20.0841
20.0865
20.0865
20.0865
20.0889
20.0889
20.0913
20.0913
20.0938
20.0938
20.0962
20.0986
20.1010
20.1034
20.1058
20.1082
20.1106
20.1130
20.1154
20.1178
20.1202
20.1226
20.1250
20.1274
20.1298
20.1322
20.1346
20.1370
20.1394
20.1418
20.1442
20.1466
20.1490
20.1514
20.1538
20.1538
20.1563
20.1587
20.1611
20.1611
20.1635
20.1635
20.1659
20.1659
20.1659
20.1683
20.1683
20.1683
20.1707
20.1707
20.1707
20.1707
20.1683
20.1683
20.1683
20.1659
20.1659
20.1635
20.1635
20.1635
20.1635
20.1611
20.1611
20.1587
20.1587
20.1563
20.1538
20.1514
20.1490
20.1466
20.1442
20.1418
20.1370
20.1346
20.1322
20.1274
20.1250
20.1202
20.1178
20.1154
20.1130
20.1106
20.1082
20.1058
20.1034
20.1010
20.1010
20.0986
20.0962
20.0938
20.0938
20.0913
20.0913
20.0889
20.0889
20.0865
20.0865
20.0865
20.0841
20.0841
20.0817
20.0817
20.0817
20.0793
20.0793
20.0793
20.0793
20.0769
20.0769
20.0769
20.0769
20.0793
20.0793
20.0793
20.0793
20.0817
20.0817
20.0817
20.0841
20.0841
20.0841
20.0841
20.0841
20.0841
20.0841
20.0841
20.0865
20.0865
20.0865
20.0865
20.0865
20.0865
20.0865
20.0865
20.0889
20.0889
20.0889
20.0889
20.0889
20.0913
20.0913
20.0913
20.0938
20.0938
20.0938
20.0962
20.0962
20.0962
20.0986
20.0986
20.0986
20.1010
20.1010
20.1010
20.1034
20.1034
20.1034
20.1034
20.1058
20.1058
20.1058
20.1058
20.1082
20.1082
20.1082
20.1106
20.1106
20.1106
20.1106
20.1106
20.1106
20.1106
20.1106
20.1106
20.1130
20.1130
20.1130
20.1130
20.1130
20.1130
20.1130
20.1154
20.1154
20.1130
20.1130
20.1130
20.1130
20.1106
20.1106
20.1106
20.1082
20.1082
20.1082
20.1082
20.1058
20.1058
20.1058
20.1034
20.1034
20.1034
20.1034
20.1034
20.1034
20.1034
20.1034
20.1034
20.1034
20.1034
20.1034
20.1034
20.1034
20.1034
20.1034
20.1034
20.1034
20.1010
20.1010
20.1010
20.1010
20.1010
20.1010
20.1010
20.1010
20.1010
20.1010
20.1010
20.0986
20.0986
20.0986
20.0986
20.0986
20.0986
20.0986
20.0986
20.0986
20.0986
20.0986
20.0986
20.1010
20.1010
20.0986
20.0986
20.0986
20.0986
20.0986
20.0986
20.0986
20.0986
20.0986
20.0986
20.0986
20.0986
20.0986
20.0986
20.0986
20.0986
20.0986
20.0986
20.0986
20.0986
20.0986
20.0986
20.1010
20.1010
20.1010
20.1010
20.1010
20.1010
20.1010
20.1010
20.1034
20.1034
20.1034
20.1034
20.1034
20.1034
20.1034
20.1034
20.1034
20.1034
20.1034
20.1034
20.1034
20.1034
20.1034
20.1034
20.1034
20.1010
20.1010
20.1010
20.1034
20.1010
20.1010
20.1034
20.1034
20.1034
20.1010
20.1034
20.1034
20.1010
20.1010
20.1010
20.1010
20.1010
20.1010
20.1010
20.1034
20.1034
20.1034
20.1034
20.1034
20.1034
20.1034
20.1034
20.1034
20.1034
20.1034
20.1058
20.1058
20.1058
20.1058
20.1058
20.1058
20.1058
20.1082
20.1082
20.1082
20.1082
20.1082
20.1106
20.1106
20.1106
20.1130
20.1130
20.1154
20.1178
20.1202
20.1202
20.1226
20.1250
20.1274
20.1298
20.1298
20.1322
20.1346
20.1346
20.1370
20.1370
20.1394
20.1418
20.1442
20.1466
20.1466
20.1490
20.1514
20.1514
20.1514
20.1514
20.1514
20.1490
20.1490
20.1466
20.1466
20.1442
20.1442
20.1418
20.1418
20.1394
20.1370
20.1346
20.1298
20.1274
20.1226
20.1178
20.1130
20.1106
20.1058
20.1034
20.1010
20.0986
20.0962
20.0962
20.0938
20.0938
20.0913
20.0913
20.0913
20.0889
20.0889
20.0889
20.0889
20.0889
20.0913
20.0913
20.0913
20.0913
20.0938
20.0938
20.0938
20.0938
20.0938
20.0938
20.0913
20.0889
20.0889
20.0865
20.0865
20.0865
20.0865
20.0938
20.1058
20.1250
20.1563
20.1971
20.2524
20.3173
20.3942
20.4808
20.5721
20.6635
20.7524
20.8269
20.8870
20.9255
20.9327
20.9135
20.8654
20.7933
20.7019
20.5986
20.4904
20.3846
20.2909
20.2091
20.1418
20.0913
20.0577
20.0337
20.0192
20.0096
20.0072
20.0096
20.0120
20.0168
20.0216
20.0240
20.0288
20.0313
20.0337
20.0361
20.0361
20.0361
20.0385
20.0385
20.0385
20.0409
20.0409
20.0409
20.0409
20.0433
20.0433
20.0433
20.0433
20.0457
20.0457
20.0481
20.0481
20.0505
20.0505
20.0505
20.0529
20.0529
20.0529
20.0529
20.0553
20.0553
20.0553
20.0577
20.0577
20.0577
20.0601
20.0601
20.0601
20.0601
20.0601
20.0601
20.0601
20.0601
20.0601
20.0601
20.0625
20.0625
20.0625
20.0625
20.0625
20.0649
20.0649
20.0649
20.0649
20.0673
20.0673
20.0673
20.0673
20.0697
20.0697
20.0697
20.0697
20.0721
20.0721
20.0721
20.0745
20.0745
20.0745
20.0769
20.0769
20.0793
20.0793
20.0793
20.0817
20.0817
20.0841
20.0841
20.0865
20.0865
20.0889
20.0889
20.0913
20.0938
20.0962
20.0986
20.0986
20.1010
20.1034
20.1034
20.1058
20.1058
20.1082
20.1082
20.1106
20.1130
20.1154
20.1178
20.1202
20.1226
20.1250
20.1274
20.1298
20.1346
20.1370
20.1394
20.1442
20.1466
20.1490
20.1538
20.1563
20.1587
20.1611
20.1635
20.1659
20.1683
20.1707
20.1707
20.1731
20.1755
20.1779
20.1779
20.1803
20.1803
20.1827
20.1827
20.1851
20.1851
20.1851
20.1875
20.1875
20.1875
20.1875
20.1875
20.1851
20.1851
20.1851
20.1827
20.1827
20.1803
20.1803
20.1779
20.1755
20.1731
20.1707
20.1659
20.1635
20.1587
20.1563
20.1514
20.1490
20.1442
20.1418
20.1370
20.1346
20.1298
20.1250
20.1226
20.1178
20.1130
20.1106
20.1058
20.1034
20.1010
20.0986
20.0962
20.0938
20.0913
20.0913
20.0889
20.0865
20.0865
20.0841
20.0841
20.0817
20.0817
20.0793
20.0793
20.0793
20.0769
20.0769
20.0769
20.0769
20.0769
20.0769
20.0745
20.0745
20.0745
20.0745
20.0745
20.0745
20.0745
20.0745
20.0745
20.0745
20.0745
20.0745
20.0745
20.0745
20.0745
20.0745
20.0745
20.0769
20.0769
20.0769
20.0769
20.0769
20.0793
20.0793
20.0793
20.0793
20.0793
20.0817
20.0817
20.0817
20.0841
20.0841
20.0841
20.0865
20.0865
20.0865
20.0865
20.0865
20.0889
20.0889
20.0889
20.0889
20.0913
20.0913
20.0938
20.0938
20.0938
20.0962
20.0962
20.0962
20.0986
20.0986
20.1010
20.1010
20.1010
20.1034
20.1034
20.1034
20.1058
20.1058
20.1058
20.1082
20.1082
20.1082
20.1082
20.1082
20.1106
20.1106
20.1106
20.1106
20.1106
20.1106
20.1106
20.1106
20.1106
20.1106
20.1106
20.1106
20.1082
20.1082
20.1082
20.1082
20.1082
20.1082
20.1082
20.1082
20.1058
20.1058
20.1058
20.1058
20.1058
20.1034
20.1034
20.1034
20.1034
20.1034
20.1010
20.1010
20.1010
20.1010
20.1010
20.1010
20.0986
20.0986
20.0986
20.0986
20.0986
20.1010
20.1010
20.1010
20.1010
20.1010
20.0986
20.0986
20.0986
20.0986
20.0986
20.0986
20.0986
20.0986
20.0986
20.0986
20.0986
20.0986
20.0986
20.0986
20.0986
20.0986
20.0986
20.0986
20.0986
20.0962
20.0962
20.0962
20.0962
20.0962
20.0962
20.0962
20.0962
20.0962
20.0986
20.0986
20.0986
20.0986
20.0986
20.0986
20.0986
20.0986
20.0986
20.0986
20.0986
20.0986
20.0986
20.0986
20.0986
20.0986
20.0986
20.0986
20.1010
20.1010
20.1010
20.1010
20.1010
20.1010
20.1010
20.1010
20.1010
20.0986
20.0986
20.0986
20.0986
20.1010
20.1010
20.1010
20.1010
20.1010
20.1010
20.1010
20.1010
20.1010
20.1010
20.1010
20.1010
20.1010
20.1010
20.1010
20.1010
20.1010
20.1010
20.1034
20.1034
20.1034
20.1034
20.1034
20.1034
20.1034
20.1034
20.1034
20.1034
20.1034
20.1034
20.1034
20.1034
20.1034
20.1034
20.1034
20.1034
20.1034
20.1034
20.1034
20.1034
20.1034
20.1034
20.1058
20.1058
20.1058
20.1058
20.1058
20.1058
20.1058
20.1058
20.1058
20.1058
20.1058
20.1058
20.1058
20.1058
20.1058
20.1058
20.1058
20.1082
20.1082
20.1082
20.1082
20.1082
20.1106
20.1106
20.1106
20.1106
20.1106
20.1106
20.1106
20.1106
20.1130
20.1130
20.1130
20.1130
20.1130
20.1130
20.1130
20.1130
20.1154
20.1154
20.1154
20.1154
20.1178
20.1178
20.1202
20.1226
20.1250
20.1274
20.1298
20.1322
20.1322
20.1346
20.1370
20.1370
20.1394
20.1394
20.1418
20.1418
20.1442
20.1466
20.1490
20.1514
20.1538
20.1563
20.1587
20.1587
20.1611
20.1611
20.1611
20.1611
20.1587
20.1563
20.1563
20.1538
20.1538
20.1538
20.1514
20.1514
20.1490
20.1490
20.1466
20.1418
20.1394
20.1346
20.1298
20.1250
20.1226
20.1178
20.1130
20.1106
20.1058
20.1034
20.1034
20.1010
20.1010
20.0986
20.0986
20.0986
20.0986
20.0962
20.0962
20.0962
20.0962
20.0962
20.0962
20.0962
20.0962
20.0962
20.0962
20.0962
20.0986
20.0986
20.0986
20.0986
20.0962
20.0962
20.0938
20.0913
20.0889
20.0889
20.0889
20.0938
20.1034
20.1226
20.1538
20.1947
20.2524
20.3221
20.4063
20.4976
20.5962
20.6971
20.7909
20.8750
20.9375
20.9808
20.9928
20.9736
20.9255
20.8558
20.7644
20.6587
20.5481
20.4399
20.3413
20.2524
20.1803
20.1250
20.0841
20.0553
20.0361
20.0240
20.0192
20.0192
20.0192
20.0240
20.0264
20.0288
20.0313
20.0337
20.0361
20.0361
20.0385
20.0385
20.0385
20.0409
20.0409
20.0409
20.0409
20.0433
20.0433
20.0433
20.0433
20.0457
20.0457
20.0481
20.0481
20.0481
20.0505
20.0505
20.0505
20.0505
20.0505
20.0505
20.0505
20.0529
20.0529
20.0529
20.0529
20.0529
20.0529
20.0553
20.0553
20.0553
20.0553
20.0577
20.0577
20.0577
20.0577
20.0577
20.0577
20.0577
20.0601
20.0601
20.0601
20.0601
20.0601
20.0601
20.0625
20.0625
20.0625
20.0649
20.0649
20.0649
20.0673
20.0673
20.0673
20.0673
20.0697
20.0697
20.0697
20.0697
20.0697
20.0721
20.0721
20.0721
20.0745
20.0745
20.0745
20.0769
20.0769
20.0769
20.0793
20.0793
20.0817
20.0817
20.0841
20.0841
20.0865
20.0865
20.0889
20.0889
20.0913
20.0913
20.0938
20.0938
20.0962
20.0986
20.1010
20.1010
20.1034
20.1058
20.1082
20.1106
20.1106
20.1130
20.1178
20.1202
20.1226
20.1250
20.1298
20.1322
20.1346
20.1370
20.1418
20.1442
20.1466
20.1490
20.1490
20.1514
20.1538
20.1563
20.1587
20.1587
20.1611
20.1635
20.1659
20.1659
20.1683
20.1707
20.1707
20.1731
20.1731
20.1755
20.1755
20.1779
20.1779
20.1779
20.1779
20.1779
20.1779
20.1755
20.1755
20.1731
20.1731
20.1731
20.1707
20.1683
20.1683
20.1659
20.1635
20.1611
20.1587
20.1563
20.1538
20.1514
20.1466
20.1442
20.1418
20.1370
20.1346
20.1298
20.1274
20.1226
20.1202
20.1178
20.1130
20.1106
20.1082
20.1058
20.1034
20.1010
20.0986
20.0962
20.0962
20.0938
20.0913
20.0913
20.0889
20.0889
20.0889
20.0865
20.0865
20.0865
20.0865
20.0841
20.0841
20.0841
20.0841
20.0841
20.0841
20.0817
20.0817
20.0817
20.0817
20.0817
20.0817
20.0817
20.0841
20.0841
20.0841
20.0841
20.0841
20.0817
20.0817
20.0817
20.0817
20.0817
20.0817
20.0817
20.0817
20.0817
20.0817
20.0841
20.0841
20.0841
20.0841
20.0841
20.0841
20.0841
20.0865
20.0865
20.0865
20.0865
20.0865
20.0889
20.0889
20.0889
20.0913
20.0913
20.0938
20.0938
20.0938
20.0962
20.0962
20.0962
20.0962
20.0986
20.0986
20.0986
20.0986
20.1010
20.1010
20.1010
20.1010
20.1034
20.1034
20.1058
20.1058
20.1082
20.1082
20.1106
20.1106
20.1106
20.1130
20.1130
20.1130
20.1130
20.1130
20.1130
20.1130
20.1130
20.1130
20.1130
20.1130
20.1130
20.1130
20.1130
20.1130
20.1130
20.1130
20.1106
20.1106
20.1106
20.1106
20.1106
20.1082
20.1082
20.1082
20.1082
20.1082
20.1082
20.1058
20.1058
20.1058
20.1058
20.1058
20.1058
20.1058
20.1058
20.1058
20.1058
20.1058
20.1058
20.1034
20.1034
20.1034
20.1034
20.1034
20.1058
20.1058
20.1058
20.1058
20.1034
20.1034
20.1034
20.1034
20.1034
20.1034
20.1034
20.1034
20.1034
20.1034
20.1034
20.1034
20.1034
20.1034
20.1034
20.1034
20.1034
20.1034
20.1034
20.1034
20.1034
20.1034
20.1034
20.1034
20.1034
20.1034
20.1034
20.1058
20.1058
20.1058
20.1058
20.1058
20.1058
20.1058
20.1058
20.1058
20.1058
20.1058
20.1058
20.1058
20.1058
20.1058
20.1058
20.1058
20.1058
20.1058
20.1082
20.1082
20.1082
20.1082
20.1082
20.1082
20.1082
20.1082
20.1082
20.1082
20.1082
20.1082
20.1082
20.1082
20.1082
20.1082
20.1082
20.1082
20.1082
20.1082
20.1082
20.1082
20.1082
20.1082
20.1082
20.1082
20.1082
20.1082
20.1082
20.1082
20.1082
20.1082
20.1082
20.1082
20.1082
20.1082
20.1082
20.1082
20.1058
20.1058
20.1058
20.1058
20.1058
20.1058
20.1058
20.1058
20.1058
20.1082
20.1082
20.1082
20.1082
20.1082
20.1082
20.1082
20.1082
20.1082
20.1082
20.1082
20.1082
20.1082
20.1082
20.1106
20.1106
20.1106
20.1106
20.1106
20.1106
20.1106
20.1106
20.1106
20.1106
20.1106
20.1106
20.1106
20.1106
20.1106
20.1106
20.1106
20.1106
20.1106
20.1106
20.1106
20.1106
20.1106
20.1106
20.1106
20.1082
20.1082
20.1082
20.1082
20.1082
20.1082
20.1082
20.1082
20.1082
20.1082
20.1082
20.1106
20.1106
20.1106
20.1106
20.1106
20.1106
20.1106
20.1106
20.1106
20.1106
20.1106
20.1106
20.1106
20.1106
20.1106
20.1106
20.1106
20.1106
20.1106
20.1106
20.1106
20.1106
20.1106
20.1106
20.1130
20.1130
20.1130
20.1130
20.1130
20.1130
20.1130
20.1130
20.1130
20.1130
20.1106
20.1106
20.1106
20.1106
20.1106
20.1106
20.1106
20.1106
20.1106
20.1130
20.1154
20.1178
20.1202
20.1226
20.1250
20.1274
20.1298
20.1322
20.1346
20.1370
20.1394
20.1394
20.1418
20.1442
20.1442
20.1466
20.1490
20.1490
20.1514
20.1538
20.1563
20.1563
20.1587
20.1611
20.1611
20.1611
20.1611
20.1611
20.1587
20.1587
20.1563
20.1538
20.1538
20.1514
20.1490
20.1490
20.1466
20.1466
20.1442
20.1394
20.1370
20.1322
20.1298
20.1250
20.1202
20.1178
20.1130
20.1106
20.1082
20.1058
20.1034
20.1010
20.1010
20.0986
20.0986
20.0986
20.0962
20.0962
20.0986
20.0986
20.0986
20.0986
20.1010
20.1010
20.1010
20.1010
20.1010
20.1010
20.1010
20.1010
20.0986
20.0986
20.0962
20.0938
20.0913
20.0913
20.0913
20.0938
20.1010
20.1178
20.1418
20.1803
20.2308
20.2957
20.3750
20.4639
20.5625
20.6635
20.7596
20.8486
20.9231
20.9736
20.9976
20.9928
20.9567
20.8942
20.8077
20.7067
20.5962
20.4856
20.3798
20.2861
20.2067
20.1418
20.0938
20.0601
20.0385
20.0240
20.0168
20.0144
20.0168
20.0192
20.0216
20.0264
20.0288
20.0288
20.0313
20.0313
20.0337
20.0337
20.0337
20.0337
20.0337
20.0337
20.0361
20.0361
20.0361
20.0385
20.0385
20.0409
20.0409
20.0409
20.0433
20.0433
20.0433
20.0457
20.0457
20.0457
20.0481
20.0481
20.0481
20.0505
20.0505
20.0505
20.0505
20.0505
20.0529
20.0529
20.0529
20.0529
20.0529
20.0529
20.0529
20.0529
20.0553
20.0553
20.0553
20.0553
20.0577
20.0577
20.0577
20.0601
20.0601
20.0601
20.0601
20.0625
20.0625
20.0625
20.0625
20.0625
20.0625
20.0649
20.0649
20.0649
20.0673
20.0673
20.0673
20.0697
20.0697
20.0697
20.0721
20.0721
20.0721
20.0745
20.0745
20.0769
20.0769
20.0793
20.0793
20.0817
20.0817
20.0841
20.0841
20.0841
20.0841
20.0865
20.0865
20.0865
20.0889
20.0913
20.0913
20.0938
20.0962
20.0962
20.0986
20.1010
20.1034
20.1058
20.1058
20.1082
20.1106
20.1130
20.1154
20.1178
20.1202
20.1226
20.1250
20.1298
20.1322
20.1346
20.1370
20.1394
20.1418
20.1442
20.1466
20.1490
20.1490
20.1514
20.1538
20.1538
20.1563
20.1563
20.1563
20.1587
20.1587
20.1611
20.1611
20.1635
20.1635
20.1659
20.1659
20.1659
20.1683
20.1683
20.1683
20.1683
20.1683
20.1683
20.1683
20.1683
20.1659
20.1659
20.1635
20.1635
20.1611
20.1587
20.1587
20.1563
20.1538
20.1514
20.1490
20.1466
20.1442
20.1418
20.1394
20.1370
20.1322
20.1298
20.1250
20.1226
20.1202
20.1154
20.1130
20.1082
20.1058
20.1034
20.1010
20.0986
20.0962
20.0938
20.0938
20.0913
20.0889
20.0889
20.0865
20.0865
20.0865
20.0841
20.0841
20.0841
20.0817
20.0817
20.0817
20.0817
20.0817
20.0817
20.0817
20.0817
20.0817
20.0817
20.0817
20.0817
20.0817
20.0817
20.0817
20.0817
20.0817
20.0817
20.0817
20.0817
20.0817
20.0817
20.0817
20.0817
20.0817
20.0817
20.0817
20.0817
20.0841
20.0841
20.0841
20.0841
20.0841
20.0841
20.0841
20.0841
20.0841
20.0841
20.0865
20.0865
20.0865
20.0865
20.0865
20.0889
20.0889
20.0889
20.0889
20.0913
20.0913
20.0913
20.0938
20.0938
20.0938
20.0962
20.0962
20.0962
20.0962
20.0986
20.0986
20.0986
20.0986
20.0986
20.1010
20.1010
20.1010
20.1010
20.1010
20.1010
20.1010
20.1034
20.1034
20.1034
20.1034
20.1058
20.1058
20.1058
20.1058
20.1058
20.1058
20.1058
20.1034
20.1034
20.1034
20.1034
20.1034
20.1034
20.1034
20.1034
20.1010
20.1010
20.1010
20.1010
20.1010
20.1010
20.1010
20.0986
20.0986
20.0986
20.0986
20.0986
20.0986
20.0986
20.0986
20.1010
20.1010
20.1010
20.1010
20.1010
20.1010
20.1010
20.1010
20.1010
20.0986
20.0986
20.0986
20.0986
20.0986
20.0986
20.0986
20.0986
20.0986
20.0986
20.0986
20.0986
20.0986
20.0986
20.0986
20.0986
20.0986
20.0986
20.0986
20.0986
20.0986
20.0986
20.0986
20.0986
20.0986
20.0986
20.0986
20.0986
20.0986
20.0986
20.0986
20.0962
20.0962
20.0962
20.0962
20.0962
20.0962
20.0962
20.0962
20.0962
20.0962
20.0962
20.0986
20.0986
20.0986
20.0986
20.0986
20.0986
20.1010
20.0986
20.0986
20.0986
20.0986
20.0986
20.0986
20.0986
20.0986
20.0986
20.0986
20.1010
20.1010
20.1010
20.1010
20.1010
20.1010
20.1010
20.1010
20.1010
20.1010
20.1010
20.1010
20.1010
20.1010
20.1010
20.1010
20.1010
20.1010
20.1010
20.1010
20.1010
20.1010
20.1010
20.1010
20.1010
20.1010
20.1010
20.1010
20.1010
20.1010
20.1010
20.1010
20.1010
20.1034
20.1034
20.1034
20.1034
20.1034
20.1034
20.1034
20.1034
20.1034
20.1034
20.1034
20.1034
20.1034
20.1034
20.1034
20.1034
20.1058
20.1058
20.1058
20.1058
20.1058
20.1058
20.1058
20.1058
20.1058
20.1058
20.1058
20.1058
20.1058
20.1058
20.1058
20.1058
20.1058
20.1058
20.1058
20.1058
20.1058
20.1058
20.1058
20.1058
20.1058
20.1058
20.1058
20.1082
20.1082
20.1082
20.1082
20.1082
20.1082
20.1082
20.1082
20.1082
20.1106
20.1106
20.1106
20.1106
20.1106
20.1082
20.1082
20.1082
20.1082
20.1082
20.1082
20.1082
20.1082
20.1082
20.1082
20.1082
20.1082
20.1082
20.1082
20.1082
20.1082
20.1082
20.1082
20.1082
20.1082
20.1082
20.1082
20.1106
20.1106
20.1106
20.1106
20.1106
20.1130
20.1130
20.1130
20.1106
20.1106
20.1130
20.1106
20.1106
20.1106
20.1130
20.1106
20.1130
20.1130
20.1130
20.1130
20.1130
20.1130
20.1130
20.1130
20.1130
20.1130
20.1130
20.1130
20.1130
20.1130
20.1130
20.1130
20.1154
20.1154
20.1154
20.1178
20.1202
20.1226
20.1250
20.1274
20.1274
20.1298
20.1322
20.1346
20.1370
20.1370
20.1394
20.1394
20.1418
20.1418
20.1442
20.1466
20.1490
20.1514
20.1538
20.1563
20.1563
20.1587
20.1611
20.1611
20.1611
20.1587
20.1587
20.1563
20.1538
20.1538
20.1514
20.1514
20.1490
20.1490
20.1466
20.1442
20.1418
20.1394
20.1346
20.1322
20.1274
20.1226
20.1178
20.1130
20.1106
20.1058
20.1034
20.1010
20.0986
20.0986
20.0962
20.0962
20.0962
20.0962
20.0962
20.0962
20.0962
20.0962
20.0962
20.0962
20.0962
20.0986
20.0986
20.0986
20.1010
20.1010
20.1010
20.1010
20.1010
20.1010
20.0986
20.0962
20.0938
20.0938
20.0938
20.0962
20.1058
20.1226
20.1514
20.1899
20.2428
20.3101
20.3894
20.4808
20.5769
20.6755
20.7716
20.8558
20.9255
20.9712
20.9904
20.9784
20.9375
20.8702
20.7813
20.6779
20.5673
20.4543
20.3510
20.2596
20.1827
20.1226
20.0793
20.0481
20.0288
20.0168
20.0096
20.0096
20.0120
20.0168
20.0192
20.0240
20.0264
20.0313
20.0337
20.0361
20.0361
20.0385
20.0409
20.0409
20.0433
20.0433
20.0433
20.0457
20.0457
20.0457
20.0457
20.0457
20.0481
20.0481
20.0505
20.0505
20.0505
20.0505
20.0529
20.0529
20.0529
20.0529
20.0529
20.0529
20.0553
20.0553
20.0553
20.0553
20.0577
20.0577
20.0577
20.0577
20.0601
20.0601
20.0601
20.0625
20.0625
20.0625
20.0625
20.0625
20.0649
20.0649
20.0625
20.0649
20.0649
20.0649
20.0649
20.0673
20.0673
20.0673
20.0697
20.0697
20.0697
20.0697
20.0721
20.0721
20.0721
20.0721
20.0745
20.0745
20.0745
20.0745
20.0769
20.0769
20.0769
20.0769
20.0769
20.0769
20.0769
20.0793
20.0793
20.0817
20.0841
20.0841
20.0865
20.0865
20.0889
20.0913
20.0913
20.0938
20.0938
20.0938
20.0962
20.0962
20.0986
20.0986
20.1010
20.1034
20.1058
20.1058
20.1082
20.1106
20.1130
20.1154
20.1178
20.1202
20.1226
20.1250
20.1274
20.1298
20.1322
20.1346
20.1370
20.1394
20.1418
20.1442
20.1466
20.1466
20.1490
20.1514
20.1538
20.1538
20.1563
20.1587
20.1587
20.1611
20.1611
20.1635
20.1635
20.1659
20.1659
20.1659
20.1659
20.1659
20.1659
20.1659
20.1659
20.1659
20.1659
20.1635
20.1635
20.1635
20.1611
20.1611
20.1611
20.1587
20.1563
20.1563
20.1538
20.1538
20.1514
20.1490
20.1466
20.1466
20.1442
20.1394
20.1370
20.1346
20.1322
20.1274
20.1250
20.1226
20.1178
20.1154
20.1130
20.1106
20.1082
20.1058
20.1034
20.1034
20.1010
20.0986
20.0986
20.0962
20.0962
20.0938
20.0938
20.0913
20.0913
20.0889
20.0889
20.0889
20.0865
20.0865
20.0865
20.0865
20.0865
20.0865
20.0841
20.0841
20.0841
20.0841
20.0841
20.0841
20.0841
20.0841
20.0841
20.0841
20.0841
20.0817
20.0817
20.0817
20.0817
20.0793
20.0793
20.0817
20.0817
20.0817
20.0817
20.0841
20.0841
20.0841
20.0841
20.0841
20.0841
20.0841
20.0841
20.0841
20.0865
20.0865
20.0889
20.0889
20.0913
20.0913
20.0938
20.0938
20.0962
20.0962
20.0962
20.0986
20.0986
20.1010
20.1010
20.1034
20.1034
20.1058
20.1058
20.1058
20.1082
20.1082
20.1082
20.1106
20.1106
20.1106
20.1106
20.1106
20.1130
20.1130
20.1130
20.1154
20.1154
20.1154
20.1154
20.1154
20.1154
20.1154
20.1154
20.1130
20.1130
20.1130
20.1130
20.1130
20.1130
20.1130
20.1130
20.1130
20.1130
20.1130
20.1130
20.1106
20.1106
20.1106
20.1106
20.1106
20.1106
20.1082
20.1082
20.1082
20.1082
20.1082
20.1058
20.1058
20.1058
20.1058
20.1034
20.1034
20.1034
20.1010
20.1010
20.1010
20.1010
20.1010
20.1010
20.1010
20.1010
20.1010
20.1010
20.1010
20.1010
20.1010
20.0986
20.0986
20.0986
20.0986
20.0986
20.0986
20.0986
20.0986
20.0986
20.1010
20.1010
20.1010
20.1010
20.1010
20.1010
20.0986
20.0986
20.0986
20.0986
20.0986
20.0986
20.0986
20.0986
20.0986
20.0986
20.1010
20.1010
20.1010
20.1010
20.1010
20.1010
20.1010
20.1010
20.1010
20.0986
20.0986
20.0986
20.0986
20.0986
20.0986
20.0986
20.0986
20.0986
20.0986
20.0986
20.0986
20.0986
20.0986
20.0986
20.0986
20.0986
20.0986
20.0986
20.0986
20.0986
20.0986
20.1010
20.1010
20.1010
20.1010
20.1010
20.1010
20.1010
20.1010
20.1010
20.1010
20.1010
20.1010
20.1010
20.1010
20.1010
20.1010
20.1010
20.1010
20.1010
20.1010
20.1010
20.1010
20.1010
20.1010
20.1010
20.1010
20.1034
20.1034
20.1034
20.1034
20.1034
20.1034
20.1034
20.1034
20.1034
20.1034
20.1034
20.1034
20.1034
20.1034
20.1034
20.1034
20.1034
20.1058
20.1058
20.1058
20.1058
20.1058
20.1058
20.1058
20.1058
20.1058
20.1058
20.1058
20.1058
20.1058
20.1082
20.1106
20.1130
20.1154
20.1202
20.1226
20.1250
20.1274
20.1298
20.1322
20.1346
20.1370
20.1370
20.1394
20.1394
20.1418
20.1418
20.1442
20.1466
20.1466
20.1490
20.1490
20.1490
20.1514
20.1514
20.1514
20.1514
20.1490
20.1490
20.1490
20.1466
20.1466
20.1466
20.1466
20.1442
20.1442
20.1418
20.1394
20.1370
20.1322
20.1298
20.1250
20.1202
20.1154
20.1106
20.1082
20.1034
20.1010
20.0986
20.0962
20.0962
20.0938
20.0938
20.0913
20.0913
20.0913
20.0913
20.0913
20.0913
20.0913
20.0913
20.0913
20.0913
20.0913
20.0938
20.0938
20.0938
20.0938
20.0938
20.0913
20.0913
20.0889
20.0865
20.0865
20.0841
20.0841
20.0865
20.0913
20.1034
20.1226
20.1514
20.1923
20.2452
20.3101
20.3870
20.4736
20.5649
20.6587
20.7476
20.8245
20.8894
20.9303
20.9423
20.9255
20.8822
20.8125
20.7236
20.6202
20.5144
20.4087
20.3101
20.2260
20.1563
20.1034
20.0649
20.0409
20.0240
20.0144
20.0120
20.0120
20.0168
20.0192
20.0240
20.0288
20.0313
20.0337
20.0361
20.0361
20.0385
20.0409
20.0409
20.0433
20.0433
20.0433
20.0457
20.0457
20.0481
20.0481
20.0481
20.0481
20.0505
20.0505
20.0505
20.0505
20.0505
20.0529
20.0529
20.0529
20.0553
20.0553
20.0553
20.0553
20.0553
20.0577
20.0577
20.0577
20.0577
20.0577
20.0577
20.0601
20.0601
20.0601
20.0625
20.0625
20.0625
20.0625
20.0649
20.0649
20.0649
20.0673
20.0673
20.0673
20.0673
20.0697
20.0697
20.0697
20.0697
20.0721
20.0721
20.0745
20.0745
20.0745
20.0769
20.0769
20.0769
20.0769
20.0769
20.0793
20.0793
20.0793
20.0817
20.0817
20.0817
20.0841
20.0841
20.0841
20.0865
20.0865
20.0889
20.0889
20.0913
20.0913
20.0938
20.0938
20.0962
20.0962
20.0962
20.0986
20.0986
20.1010
20.1034
20.1034
20.1058
20.1082
20.1106
20.1130
20.1154
20.1178
20.1202
20.1226
20.1274
20.1298
20.1322
20.1346
20.1370
20.1394
20.1418
20.1442
20.1466
20.1514
20.1538
20.1563
20.1587
20.1635
20.1659
20.1683
20.1707
20.1731
20.1755
20.1779
20.1803
20.1803
20.1827
20.1827
20.1851
20.1851
20.1875
20.1875
20.1875
20.1875
20.1875
20.1875
20.1875
20.1875
20.1875
20.1875
20.1875
20.1875
20.1851
20.1851
20.1827
20.1827
20.1803
20.1779
20.1779
20.1731
20.1707
20.1683
20.1659
20.1635
20.1587
20.1563
20.1514
20.1466
20.1442
20.1394
20.1346
20.1322
20.1274
20.1226
20.1178
20.1154
20.1130
20.1082
20.1058
20.1034
20.1010
20.0962
20.0962
20.0938
20.0913
20.0889
20.0865
20.0865
20.0841
20.0841
20.0841
20.0817
20.0817
20.0817
20.0817
20.0817
20.0817
20.0793
20.0793
20.0793
20.0793
20.0793
20.0793
20.0793
20.0793
20.0793
20.0769
20.0769
20.0769
20.0769
20.0769
20.0769
20.0769
20.0769
20.0769
20.0769
20.0769
20.0769
20.0769
20.0769
20.0793
20.0793
20.0793
20.0793
20.0793
20.0793
20.0793
20.0817
20.0817
20.0841
20.0841
20.0841
20.0841
20.0865
20.0865
20.0865
20.0865
20.0889
20.0889
20.0889
20.0913
20.0913
20.0938
20.0938
20.0962
20.0962
20.0962
20.0986
20.0986
20.0986
20.1010
20.1010
20.1010
20.1034
20.1034
20.1034
20.1058
20.1058
20.1058
20.1082
20.1082
20.1106
20.1106
20.1106
20.1130
20.1130
20.1130
20.1154
20.1154
20.1154
20.1154
20.1154
20.1154
20.1154
20.1154
20.1154
20.1130
20.1130
20.1130
20.1130
20.1130
20.1130
20.1106
20.1106
20.1106
20.1106
20.1106
20.1106
20.1082
20.1082
20.1082
20.1082
20.1058
20.1058
20.1058
20.1058
20.1058
20.1034
20.1034
20.1034
20.1034
20.1034
20.1034
20.1034
20.1034
20.1034
20.1034
20.1034
20.1034
20.1034
20.1034
20.1034
20.1034
20.1034
20.1034
20.1010
20.1010
20.1010
20.1010
20.1010
20.1010
20.1010
20.1010
20.1010
20.1010
20.1010
20.1010
20.1010
20.1010
20.1010
20.1010
20.1010
20.1010
20.1010
20.1010
20.1010
20.1010
20.1010
20.1010
20.1010
20.1010
20.1010
20.1010
20.1010
20.1010
20.1010
20.1010
20.1010
20.1010
20.1034
20.1034
20.1034
20.1034
20.1034
20.1058
20.1058
20.1058
20.1058
20.1058
20.1058
20.1058
20.1058
20.1058
20.1058
20.1058
20.1058
20.1058
20.1058
20.1058
20.1058
20.1058
20.1058
20.1058
20.1058
20.1058
20.1058
20.1034
20.1058
20.1058
20.1058
20.1058
20.1058
20.1058
20.1058
20.1082
20.1082
20.1082
20.1082
20.1082
20.1082
20.1082
20.1082
20.1082
20.1082
20.1082
20.1082
20.1082
20.1106
20.1106
20.1106
20.1106
20.1106
20.1106
20.1106
20.1106
20.1106
20.1106
20.1106
20.1106
20.1106
20.1106
20.1106
20.1082
20.1082
20.1082
20.1082
20.1082
20.1082
20.1082
20.1082
20.1082
20.1082
20.1082
20.1106
20.1106
20.1106
20.1106
20.1106
20.1106
20.1106
20.1106
20.1130
20.1130
20.1154
20.1202
20.1226
20.1250
20.1274
20.1298
20.1322
20.1346
20.1346
20.1370
20.1394
20.1394
20.1418
20.1418
20.1442
20.1466
20.1490
20.1514
20.1538
20.1538
20.1563
20.1563
20.1587
20.1587
20.1563
20.1563
20.1563
20.1538
20.1538
20.1538
20.1514
20.1514
20.1490
20.1490
20.1466
20.1442
20.1394
20.1370
20.1322
20.1274
20.1226
20.1178
20.1130
20.1082
20.1058
20.1034
20.1010
20.0986
20.0962
20.0962
20.0938
20.0938
20.0938
20.0938
20.0938
20.0938
20.0962
20.0962
20.0962
20.0962
20.0962
20.0962
20.0962
20.0962
20.0962
20.0962
20.0962
20.0962
20.0962
20.0938
20.0913
20.0913
20.0889
20.0889
20.0889
20.0962
20.1058
20.1250
20.1514
20.1923
20.2452
20.3101
20.3870
20.4736
20.5673
20.6611
20.7500
20.8293
20.8918
20.9351
20.9471
20.9327
20.8894
20.8197
20.7332
20.6322
20.5240
20.4183
20.3221
20.2356
20.1659
20.1106
20.0721
20.0457
20.0288
20.0192
20.0144
20.0144
20.0168
20.0216
20.0240
20.0264
20.0313
20.0337
20.0337
20.0337
20.0361
20.0361
20.0385
20.0385
20.0385
20.0409
20.0409
20.0409
20.0433
20.0433
20.0433
20.0433
20.0457
20.0457
20.0457
20.0457
20.0481
20.0481
20.0481
20.0481
20.0505
20.0505
20.0505
20.0505
20.0529
20.0529
20.0529
20.0529
20.0553
20.0553
20.0553
20.0553
20.0577
20.0577
20.0577
20.0577
20.0601
20.0601
20.0601
20.0601
20.0601
20.0601
20.0601
20.0625
20.0625
20.0625
20.0625
20.0625
20.0649
20.0649
20.0673
20.0673
20.0673
20.0697
20.0697
20.0697
20.0697
20.0697
20.0721
20.0721
20.0721
20.0721
20.0745
20.0745
20.0745
20.0769
20.0769
20.0793
20.0793
20.0817
20.0817
20.0841
20.0865
20.0865
20.0889
20.0913
20.0913
20.0938
20.0962
20.0962
20.0986
20.1010
20.1034
20.1034
20.1058
20.1082
20.1106
20.1130
20.1154
20.1202
20.1226
20.1250
20.1274
20.1298
20.1322
20.1370
20.1370
20.1394
20.1442
20.1442
20.1466
20.1490
20.1538
20.1563
20.1587
20.1611
20.1635
20.1659
20.1683
20.1707
20.1731
20.1755
20.1779
20.1803
20.1827
20.1827
20.1851
20.1875
20.1875
20.1875
20.1899
20.1899
20.1899
20.1899
20.1899
20.1899
20.1899
20.1899
20.1923
20.1923
20.1899
20.1899
20.1899
20.1875
20.1851
20.1827
20.1803
20.1779
20.1755
20.1707
20.1683
20.1635
20.1611
20.1563
20.1514
20.1490
20.1442
20.1418
20.1370
20.1346
20.1298
20.1274
20.1226
20.1202
20.1154
20.1130
20.1082
20.1058
20.1034
20.1010
20.1010
20.0986
20.0962
20.0938
20.0913
20.0889
20.0889
20.0865
20.0865
20.0841
20.0841
20.0841
20.0817
20.0817
20.0817
20.0817
20.0817
20.0817
20.0817
20.0817
20.0817
20.0817
20.0817
20.0817
20.0817
20.0817
20.0817
20.0817
20.0817
20.0817
20.0817
20.0817
20.0817
20.0817
20.0817
20.0817
20.0817
20.0817
20.0841
20.0841
20.0841
20.0841
20.0841
20.0841
20.0841
20.0841
20.0865
20.0865
20.0865
20.0865
20.0865
20.0865
20.0889
20.0889
20.0889
20.0889
20.0913
20.0913
20.0913
20.0938
20.0938
20.0962
20.0962
20.0962
20.0986
20.0986
20.1010
20.1010
20.1010
20.1034
20.1034
20.1058
20.1058
20.1058
20.1082
20.1082
20.1082
20.1082
20.1082
20.1082
20.1106
20.1106
20.1106
20.1106
20.1106
20.1106
20.1106
20.1106
20.1106
20.1106
20.1106
20.1106
20.1106
20.1082
20.1082
20.1082
20.1082
20.1082
20.1082
20.1082
20.1082
20.1082
20.1082
20.1082
20.1058
20.1058
20.1058
20.1058
20.1058
20.1058
20.1034
20.1034
20.1034
20.1034
20.1034
20.1034
20.1010
20.1010
20.1010
20.1010
20.1010
20.1010
20.1010
20.0986
20.0986
20.0986
20.0986
20.0986
20.0962
20.0962
20.0962
20.0962
20.0962
20.0962
20.0962
20.0962
20.0962
20.0962
20.0962
20.0962
20.0962
20.0938
20.0938
20.0938
20.0938
20.0938
20.0938
20.0938
20.0938
20.0938
20.0962
20.0962
20.0962
20.0962
20.0962
20.0962
20.0962
20.0962
20.0962
20.0962
20.0962
20.0962
20.0962
20.0962
20.0962
20.0962
20.0962
20.0962
20.0962
20.0962
20.0962
20.0962
20.0962
20.0962
20.0962
20.0962
20.0962
20.0962
20.0962
20.0962
20.0962
20.0962
20.0962
20.0962
20.0962
20.0962
20.0962
20.0962
20.0962
20.0962
20.0962
20.0962
20.0962
20.0962
20.0962
20.0962
20.0962
20.0962
20.0962
20.0962
20.0962
20.0962
20.0962
20.0962
20.0962
20.0962
20.0962
20.0962
20.0962
20.0962
20.0962
20.0986
20.0986
20.0986
20.0986
20.0986
20.0986
20.1010
20.1010
20.1010
20.1010
20.1010
20.1010
20.1010
20.1010
20.1010
20.1010
20.1010
20.1010
20.1010
20.1010
20.1010
20.1034
20.1034
20.1034
20.1034
20.1034
20.1034
20.1034
20.1034
20.1034
20.1034
20.1034
20.1034
20.1034
20.1034
20.1034
20.1034
20.1058
20.1058
20.1058
20.1058
20.1058
20.1058
20.1058
20.1058
20.1058
20.1058
20.1058
20.1058
20.1058
20.1058
20.1058
20.1058
20.1058
20.1058
20.1082
20.1082
20.1082
20.1106
20.1130
20.1130
20.1154
20.1178
20.1202
20.1226
20.1250
20.1274
20.1298
20.1322
20.1346
20.1346
20.1370
20.1394
20.1418
20.1442
20.1466
20.1490
20.1514
20.1538
20.1563
20.1563
20.1563
20.1587
20.1563
20.1563
20.1563
20.1538
20.1538
20.1514
20.1514
20.1490
20.1490
20.1466
20.1442
20.1418
20.1394
20.1346
20.1298
20.1250
20.1202
20.1178
20.1130
20.1082
20.1058
20.1034
20.1010
20.0986
20.0962
20.0962
20.0962
20.0938
20.0938
20.0962
20.0962
20.0962
20.0962
20.0962
20.0962
20.0962
20.0962
20.0962
20.0986
20.0986
20.0986
20.0986
20.0986
20.0986
20.0986
20.0986
20.0962
20.0938
20.0938
20.0913
20.0889
20.0889
20.0938
20.1010
20.1154
20.1394
20.1755
20.2212
20.2788
20.3510
20.4303
20.5192
20.6130
20.7043
20.7885
20.8606
20.9135
20.9447
20.9447
20.9135
20.8582
20.7813
20.6851
20.5793
20.4712
20.3678
20.2740
20.1947
20.1298
20.0841
20.0505
20.0288
20.0144
20.0096
20.0072
20.0096
20.0120
20.0168
20.0192
20.0240
20.0264
20.0288
20.0313
20.0337
20.0337
20.0361
20.0361
20.0385
20.0385
20.0385
20.0409
20.0409
20.0409
20.0409
20.0433
20.0433
20.0433
20.0433
20.0433
20.0457
20.0457
20.0457
20.0457
20.0481
20.0481
20.0481
20.0481
20.0505
20.0505
20.0505
20.0529
20.0529
20.0529
20.0553
20.0553
20.0553
20.0577
20.0577
20.0577
20.0577
20.0577
20.0577
20.0577
20.0601
20.0601
20.0601
20.0601
20.0601
20.0601
20.0601
20.0625
20.0625
20.0625
20.0649
20.0649
20.0673
20.0673
20.0697
20.0697
20.0721
20.0721
20.0721
20.0745
20.0745
20.0745
20.0769
20.0769
20.0769
20.0769
20.0769
20.0769
20.0793
20.0793
20.0817
20.0817
20.0841
20.0841
20.0865
20.0865
20.0889
20.0913
20.0913
20.0938
20.0938
20.0962
20.0962
20.0986
20.1010
20.1010
20.1034
20.1058
20.1058
20.1082
20.1106
20.1130
20.1178
20.1202
20.1226
20.1274
20.1298
20.1322
20.1370
20.1394
20.1418
20.1442
20.1466
20.1490
20.1538
20.1563
20.1587
20.1611
20.1635
20.1659
20.1683
20.1707
20.1731
20.1731
20.1755
20.1779
20.1779
20.1803
20.1803
20.1803
20.1803
20.1827
20.1827
20.1827
20.1827
20.1827
20.1803
20.1803
20.1803
20.1803
20.1803
20.1779
20.1779
20.1779
20.1755
20.1731
20.1731
20.1707
20.1683
20.1659
20.1635
20.1611
20.1563
20.1538
20.1514
20.1466
20.1442
20.1394
20.1370
20.1322
20.1298
20.1250
20.1202
20.1154
20.1130
20.1082
20.1058
20.1010
20.0986
20.0962
20.0938
20.0938
20.0913
20.0913
20.0889
20.0889
20.0865
20.0865
20.0865
20.0841
20.0841
20.0817
20.0817
20.0817
20.0817
20.0817
20.0793
20.0793
20.0793
20.0793
20.0793
20.0769
20.0769
20.0769
20.0769
20.0769
20.0745
20.0745
20.0745
20.0745
20.0745
20.0745
20.0745
20.0745
20.0745
20.0745
20.0745
20.0745
20.0745
20.0769
20.0769
20.0769
20.0769
20.0769
20.0769
20.0769
20.0793
20.0793
20.0793
20.0793
20.0817
20.0817
20.0841
20.0841
20.0865
20.0865
20.0889
20.0913
20.0913
20.0938
20.0938
20.0962
20.0962
20.0962
20.0986
20.0986
20.1010
20.1010
20.1010
20.1034
20.1034
20.1058
20.1058
20.1082
20.1082
20.1082
20.1082
20.1106
20.1106
20.1106
20.1106
20.1106
20.1106
20.1130
20.1130
20.1130
20.1130
20.1130
20.1130
20.1130
20.1130
20.1130
20.1130
20.1130
20.1130
20.1130
20.1130
20.1130
20.1106
20.1106
20.1106
20.1106
20.1106
20.1082
20.1082
20.1082
20.1058
20.1058
20.1058
20.1034
20.1034
20.1034
20.1034
20.1034
20.1010
20.1010
20.1010
20.1010
20.1010
20.0986
20.0986
20.0986
20.0986
20.0986
20.0986
20.0986
20.0986
20.0986
20.0986
20.0962
20.0962
20.0962
20.0962
20.0962
20.0962
20.0962
20.0962
20.0962
20.0962
20.0962
20.0962
20.0962
20.0962
20.0962
20.0962
20.0962
20.0962
20.0962
20.0962
20.0962
20.0962
20.0962
20.0962
20.0962
20.0962
20.0962
20.0962
20.0962
20.0938
20.0938
20.0938
20.0938
20.0938
20.0938
20.0938
20.0938
20.0938
20.0938
20.0962
20.0962
20.0962
20.0962
20.0962
20.0962
20.0962
20.0962
20.0962
20.0962
20.0962
20.0962
20.0962
20.0986
20.0986
20.0986
20.0986
20.0986
20.0986
20.0986
20.0986
20.0986
20.0986
20.0986
20.1010
20.1010
20.1010
20.1010
20.1010
20.1010
20.1010
20.1010
20.1010
20.1010
20.1010
20.1010
20.1010
20.1010
20.1010
20.1010
20.1010
20.0986
20.0986
20.0986
20.0986
20.1010
20.1010
20.1010
20.1010
20.1010
20.1010
20.1010
20.1010
20.1010
20.1010
20.1010
20.1010
20.1010
20.1010
20.1010
20.1010
20.1010
20.1010
20.1010
20.1010
20.1010
20.1034
20.1034
20.1034
20.1034
20.1034
20.1034
20.1034
20.1034
20.1058
20.1058
20.1058
20.1082
20.1106
20.1130
20.1154
20.1178
20.1202
20.1226
20.1250
20.1274
20.1298
20.1322
20.1322
20.1346
20.1370
20.1370
20.1394
20.1418
20.1442
20.1466
20.1490
20.1514
20.1514
20.1538
20.1538
20.1538
20.1538
20.1538
20.1538
20.1514
20.1490
20.1490
20.1466
20.1466
20.1466
20.1442
20.1442
20.1418
20.1370
20.1346
20.1298
20.1250
20.1202
20.1154
20.1106
20.1058
20.1034
20.0986
20.0962
20.0938
20.0938
20.0913
20.0913
20.0913
20.0913
20.0913
20.0913
20.0913
20.0913
20.0913
20.0913
20.0913
20.0913
20.0913
20.0913
20.0938
20.0938
20.0938
20.0938
20.0938
20.0938
20.0938
20.0913
20.0913
20.0889
20.0865
20.0865
20.0865
20.0913
20.0986
20.1130
20.1346
20.1659
20.2091
20.2668
20.3341
20.4135
20.5000
20.5938
20.6875
20.7740
20.8486
20.9063
20.9399
20.9423
20.9183
20.8654
20.7909
20.6947
20.5889
20.4808
20.3774
20.2813
20.2019
20.1346
20.0865
20.0529
20.0313
20.0168
20.0096
20.0096
20.0120
20.0144
20.0192
20.0240
20.0264
20.0288
20.0313
20.0337
20.0361
20.0361
20.0385
20.0385
20.0385
20.0385
20.0409
20.0409
20.0409
20.0433
20.0433
20.0433
20.0433
20.0457
20.0457
20.0481
20.0481
20.0481
20.0505
20.0505
20.0505
20.0505
20.0529
20.0529
20.0529
20.0529
20.0529
20.0529
20.0553
20.0553
20.0553
20.0577
20.0577
20.0577
20.0601
20.0601
20.0601
20.0601
20.0625
20.0625
20.0625
20.0625
20.0625
20.0625
20.0649
20.0649
20.0649
20.0673
20.0673
20.0673
20.0673
20.0697
20.0697
20.0697
20.0697
20.0721
20.0721
20.0721
20.0745
20.0745
20.0745
20.0769
20.0769
20.0769
20.0793
20.0793
20.0793
20.0817
20.0817
20.0841
20.0841
20.0841
20.0865
20.0865
20.0889
20.0889
20.0913
20.0913
20.0938
20.0962
20.0962
20.0986
20.1010
20.1034
20.1034
20.1058
20.1082
20.1106
20.1130
20.1154
20.1178
20.1226
20.1250
20.1274
20.1298
20.1346
20.1370
20.1394
20.1418
20.1442
20.1466
20.1490
20.1514
20.1538
20.1563
20.1587
20.1611
20.1635
20.1659
20.1683
20.1707
20.1731
20.1755
20.1779
20.1779
20.1803
20.1827
20.1827
20.1851
20.1851
20.1875
20.1875
20.1875
20.1875
20.1875
20.1875
20.1875
20.1875
20.1875
20.1875
20.1851
20.1851
20.1851
20.1827
20.1803
20.1803
20.1779
20.1755
20.1731
20.1707
20.1683
20.1659
20.1611
20.1587
20.1563
20.1514
20.1490
20.1442
20.1394
20.1346
20.1322
20.1274
20.1226
20.1178
20.1154
20.1106
20.1082
20.1034
20.1010
20.0986
20.0962
20.0938
20.0913
20.0913
20.0889
20.0889
20.0865
20.0865
20.0865
20.0841
20.0841
20.0841
20.0817
20.0817
20.0817
20.0793
20.0793
20.0793
20.0793
20.0793
20.0793
20.0769
20.0769
20.0769
20.0769
20.0769
20.0769
20.0769
20.0769
20.0769
20.0769
20.0769
20.0769
20.0769
20.0769
20.0793
20.0793
20.0793
20.0817
20.0817
20.0817
20.0817
20.0817
20.0817
20.0841
20.0841
20.0841
20.0841
20.0841
20.0841
20.0841
20.0841
20.0865
20.0865
20.0865
20.0865
20.0889
20.0889
20.0889
20.0913
20.0913
20.0938
20.0938
20.0962
20.0962
20.0962
20.0986
20.0986
20.1010
20.1010
20.1010
20.1010
20.1034
20.1034
20.1034
20.1058
20.1058
20.1058
20.1082
20.1082
20.1106
20.1106
20.1130
20.1130
20.1130
20.1130
20.1130
20.1130
20.1130
20.1130
20.1130
20.1130
20.1130
20.1130
20.1130
20.1130
20.1130
20.1106
20.1106
20.1106
20.1106
20.1082
20.1082
20.1082
20.1082
20.1082
20.1082
20.1082
20.1082
20.1082
20.1082
20.1058
20.1058
20.1058
20.1058
20.1058
20.1058
20.1058
20.1034
20.1034
20.1034
20.1034
20.1034
20.1034
20.1010
20.1010
20.1010
20.1010
20.1010
20.1010
20.1010
20.1010
20.1010
20.1034
20.1034
20.1034
20.1034
20.1034
20.1034
20.1010
20.1034
20.1034
20.1034
20.1034
20.1034
20.1034
20.1034
20.1034
20.1034
20.1034
20.1034
20.1034
20.1034
20.1034
20.1034
20.1034
20.1034
20.1034
20.1034
20.1034
20.1034
20.1034
20.1034
20.1034
20.1034
20.1034
20.1034
20.1034
20.1034
20.1034
20.1034
20.1034
20.1034
20.1034
20.1034
20.1034
20.1034
20.1058
20.1058
20.1058
20.1058
20.1058
20.1058
20.1058
20.1058
20.1058
20.1058
20.1058
20.1058
20.1058
20.1058
20.1058
20.1058
20.1058
20.1058
20.1058
20.1058
20.1058
20.1058
20.1058
20.1058
20.1058
20.1058
20.1058
20.1058
20.1058
20.1058
20.1058
20.1058
20.1058
20.1058
20.1058
20.1082
20.1082
20.1082
20.1082
20.1082
20.1082
20.1082
20.1082
20.1058
20.1058
20.1058
20.1058
20.1058
20.1058
20.1058
20.1058
20.1082
20.1082
20.1082
20.1082
20.1082
20.1106
20.1106
20.1106
20.1106
20.1106
20.1106
20.1106
20.1106
20.1106
20.1106
20.1106
20.1106
20.1106
20.1130
0.0000
20.1130
20.1130
20.1130
20.1130
20.1130
20.1130
20.1130
20.1130
20.1130
20.1130
20.1130
20.1130
20.1130
20.1130
20.1130
20.1130
20.1130
20.1154
20.1154
20.1154
20.1154
20.1154
20.1154
20.1154
20.1154
20.1154
20.1154
20.1154
20.1154
20.1154
20.1154
20.1154
20.1154
20.1154
20.1154
20.1154
20.1178
20.1178
20.1178
20.1178
20.1178
20.1202
20.1202
20.1202
20.1202
20.1202
20.1178
20.1178
20.1178
20.1178
20.1178
20.1178
20.1178
20.1178
20.1178
20.1178
20.1178
20.1178
20.1178
20.1178
20.1178
20.1178
20.1178
20.1178
20.1178
20.1178
20.1178
20.1178
20.1202
20.1202
20.1202
20.1202
20.1202
20.1202
20.1202
20.1202
20.1202
20.1178
20.1178
20.1178
20.1178
20.1202
20.1202
20.1226
20.1226
20.1226
20.1226
20.1226
20.1226
20.1226
20.1226
20.1226
20.1226
20.1226
20.1226
20.1226
20.1226
20.1226
20.1226
20.1226
20.1226
20.1226
20.1250
20.1250
20.1274
20.1298
20.1322
20.1346
20.1370
20.1394
20.1418
20.1442
20.1442
20.1466
20.1466
20.1490
20.1490
20.1514
20.1538
20.1538
20.1563
20.1587
20.1611
20.1635
20.1659
20.1659
20.1683
20.1683
20.1683
20.1683
20.1683
20.1683
20.1659
20.1659
20.1635
20.1635
20.1611
20.1611
20.1587
20.1563
20.1538
20.1514
20.1490
20.1442
20.1418
20.1370
20.1322
20.1274
20.1226
20.1178
20.1154
20.1130
20.1082
20.1058
20.1058
20.1034
20.1034
20.1034
20.1010
20.1010
20.1010
20.1010
20.1010
20.1010
20.1034
20.1034
20.1034
20.1034
20.1034
20.1058
20.1058
20.1058
20.1058
20.1034
20.1034
20.1010
20.0986
20.0986
20.0962
20.0962
20.1010
20.1106
20.1274
20.1538
20.1923
20.2452
20.3101
20.3870
20.4760
20.5721
20.6731
20.7692
20.8558
20.9255
20.9760
20.9976
20.9904
20.9543
20.8918
20.8077
20.7067
20.5962
20.4856
20.3822
20.2885
20.2091
20.1466
20.1010
20.0673
20.0457
20.0337
20.0264
20.0240
20.0264
20.0288
20.0313
20.0337
20.0361
20.0385
20.0385
20.0409
20.0409
20.0409
20.0409
20.0409
20.0409
20.0409
20.0409
20.0433
20.0433
20.0433
20.0457
20.0457
20.0457
20.0481
20.0481
20.0481
20.0505
20.0505
20.0505
20.0505
20.0505
20.0505
20.0529
20.0529
20.0529
20.0529
20.0529
20.0529
20.0529
20.0553
20.0553
20.0577
20.0577
20.0577
20.0577
20.0601
20.0601
20.0601
20.0601
20.0625
20.0625
20.0625
20.0625
20.0649
20.0649
20.0649
20.0649
20.0649
20.0673
20.0673
20.0673
20.0673
20.0673
20.0673
20.0673
20.0697
20.0697
20.0697
20.0721
20.0721
20.0721
20.0745
20.0745
20.0769
20.0769
20.0793
20.0793
20.0817
20.0817
20.0841
20.0841
20.0841
20.0865
20.0865
20.0865
20.0889
20.0889
20.0913
20.0913
20.0938
20.0962
20.0962
20.0986
20.1010
20.1010
20.1034
20.1034
20.1058
20.1058
20.1082
20.1106
20.1106
20.1130
20.1154
20.1178
20.1202
20.1250
20.1274
20.1298
20.1322
20.1346
20.1370
20.1394
20.1418
20.1442
20.1466
20.1466
20.1490
20.1514
20.1538
20.1538
20.1563
20.1587
20.1587
20.1611
20.1611
20.1635
20.1635
20.1659
20.1659
20.1659
20.1659
20.1659
20.1683
20.1683
20.1683
20.1683
20.1683
20.1683
20.1683
20.1683
20.1659
20.1659
20.1659
20.1635
20.1635
20.1635
20.1611
20.1611
20.1587
20.1587
20.1563
20.1538
20.1514
20.1490
20.1466
20.1442
20.1394
20.1370
20.1322
20.1298
20.1250
20.1226
20.1202
20.1154
20.1130
20.1106
20.1082
20.1058
20.1034
20.1010
20.1010
20.0986
20.0962
20.0962
20.0938
20.0938
20.0913
20.0913
20.0889
20.0889
20.0865
20.0865
20.0865
20.0865
20.0865
20.0841
20.0841
20.0841
20.0841
20.0841
20.0841
20.0841
20.0817
20.0817
20.0817
20.0817
20.0817
20.0817
20.0817
20.0817
20.0817
20.0817
20.0817
20.0817
20.0841
20.0841
20.0841
20.0841
20.0841
20.0865
20.0865
20.0865
20.0865
20.0865
20.0865
20.0865
20.0865
20.0865
20.0865
20.0865
20.0865
20.0865
20.0889
20.0889
20.0889
20.0889
20.0913
20.0913
20.0913
20.0913
20.0938
20.0938
20.0938
20.0938
20.0938
20.0962
20.0962
20.0962
20.0962
20.0962
20.0986
20.0986
20.0986
20.0986
20.0986
20.1010
20.1010
20.1010
20.1010
20.1034
20.1034
20.1034
20.1034
20.1034
20.1058
20.1058
20.1058
20.1058
20.1058
20.1058
20.1058
20.1058
20.1058
20.1058
20.1034
20.1034
20.1034
20.1034
20.1034
20.1010
20.1010
20.1010
20.1010
20.1010
20.1010
20.1010
20.1010
20.1010
20.0986
20.0986
20.0986
20.0986
20.0986
20.0986
20.0962
20.0962
20.0962
20.0962
20.0962
20.0962
20.0962
20.0962
20.0962
20.0962
20.0962
20.0938
20.0938
20.0938
20.0938
20.0938
20.0938
20.0962
20.0962
20.0962
20.0962
20.0962
20.0962
20.0962
20.0962
20.0962
20.0962
20.0962
20.0938
20.0938
20.0938
20.0938
20.0938
20.0938
20.0938
20.0938
20.0938
20.0938
20.0938
20.0938
20.0938
20.0938
20.0913
20.0913
20.0913
20.0913
20.0913
20.0913
20.0913
20.0913
20.0913
20.0913
20.0913
20.0913
20.0913
20.0913
20.0913
20.0913
20.0913
20.0913
20.0913
20.0913
20.0913
20.0913
20.0913
20.0913
20.0913
20.0913
20.0938
20.0938
20.0938
20.0938
20.0938
20.0938
20.0938
20.0938
20.0913
20.0913
20.0913
20.0913
20.0913
20.0913
20.0913
20.0913
20.0913
20.0938
20.0938
20.0938
20.0938
20.0938
20.0938
20.0938
20.0938
20.0938
20.0938
20.0938
20.0938
20.0938
20.0938
20.0938
20.0938
20.0938
20.0938
20.0938
20.0938
20.0938
20.0938
20.0938
20.0938
20.0938
20.0938
20.0938
20.0938
20.0938
20.0938
20.0938
20.0938
20.0962
20.0962
20.0962
20.0962
20.0986
20.0986
20.0986
20.0986
20.0986
20.0986
20.0986
20.0986
20.0986
20.0986
20.0986
20.0986
20.0986
20.0986
20.0986
20.1010
20.1010
20.1010
20.1010
20.1010
20.1010
20.1010
20.1010
20.1010
20.1010
20.1010
20.1010
20.1010
20.1010
20.1010
20.1010
20.1010
20.1010
20.1010
20.1010
20.1010
20.1010
20.1010
20.0986
20.1010
20.1010
20.1010
20.1010
20.1010
20.1034
20.1034
20.1034
20.1034
20.1034
20.1034
20.1034
20.1034
20.1034
20.1010
20.1010
20.1010
20.1010
20.1010
20.1010
20.1010
20.1010
20.1010
20.1034
20.1034
20.1034
20.1034
20.1034
20.1058
20.1058
20.1058
20.1058
20.1058
20.1058
20.1058
20.1058
20.1058
20.1058
20.1058
20.1058
20.1058
20.1058
20.1082
20.1082
20.1082
20.1082
20.1082
20.1082
20.1082
20.1082
20.1082
20.1082
20.1082
20.1082
20.1082
20.1082
20.1082
20.1082
20.1082
20.1082
20.1082
20.1082
20.1082
20.1058
20.1058
20.1058
20.1058
20.1058
20.1058
20.1058
20.1058
20.1058
20.1058
20.1082
20.1082
20.1082
20.1082
20.1082
20.1082
20.1106
20.1106
20.1106
20.1106
20.1106
20.1106
20.1106
20.1106
20.1106
20.1106
20.1106
20.1106
20.1106
20.1106
20.1106
20.1106
20.1106
20.1106
20.1106
20.1106
20.1106
20.1106
20.1106
20.1106
20.1130
20.1130
20.1130
20.1130
20.1154
20.1154
20.1178
20.1202
20.1226
20.1250
20.1274
20.1298
20.1322
20.1346
20.1346
20.1370
20.1394
20.1394
20.1418
20.1442
20.1466
20.1490
20.1538
20.1563
20.1563
20.1587
20.1611
20.1611
20.1611
20.1611
20.1611
20.1611
20.1587
20.1587
20.1563
20.1538
20.1514
20.1514
20.1490
20.1466
20.1442
20.1394
20.1370
20.1346
20.1298
20.1250
20.1202
20.1178
20.1130
20.1106
20.1082
20.1058
20.1034
20.1034
20.1010
20.1010
20.0986
20.0986
20.0986
20.0986
20.0986
20.0962
20.0962
20.0962
20.0962
20.0962
20.0962
20.0962
20.0986
20.0986
20.0962
20.0962
20.0962
20.0962
20.0938
20.0913
20.0913
20.0889
20.0889
20.0913
20.1010
20.1178
20.1442
20.1827
20.2356
20.3029
20.3846
20.4736
20.5721
20.6731
20.7692
20.8558
20.9255
20.9736
20.9928
20.9832
20.9423
20.8774
20.7909
20.6875
20.5745
20.4639
20.3606
20.2668
20.1899
20.1274
20.0841
20.0505
20.0313
20.0168
20.0120
20.0096
20.0120
20.0144
20.0168
20.0216
20.0240
20.0264
20.0288
20.0288
20.0313
20.0313
20.0313
20.0313
20.0337
20.0337
20.0337
20.0361
20.0361
20.0361
20.0385
20.0385
20.0385
20.0385
20.0385
20.0409
20.0409
20.0409
20.0409
20.0409
20.0409
20.0409
20.0409
20.0409
20.0433
20.0433
20.0433
20.0457
20.0457
20.0457
20.0481
20.0481
20.0505
20.0505
20.0505
20.0505
20.0529
20.0529
20.0529
20.0529
20.0553
20.0553
20.0577
20.0577
20.0577
20.0601
20.0601
20.0601
20.0601
20.0601
20.0625
20.0625
20.0625
20.0625
20.0625
20.0649
20.0649
20.0649
20.0649
20.0673
20.0673
20.0673
20.0673
20.0673
20.0697
20.0697
20.0721
20.0721
20.0721
20.0745
20.0769
20.0769
20.0769
20.0793
20.0793
20.0817
20.0817
20.0841
20.0841
20.0865
20.0889
20.0889
20.0913
20.0913
20.0938
20.0962
20.0962
20.0986
20.0986
20.1010
20.1034
20.1058
20.1082
20.1082
20.1106
20.1130
20.1154
20.1178
20.1202
20.1226
20.1250
20.1274
20.1298
20.1322
20.1346
20.1370
20.1394
20.1394
20.1418
20.1442
20.1442
20.1466
20.1466
20.1490
20.1514
20.1514
20.1538
20.1538
20.1538
20.1538
20.1563
20.1563
20.1563
20.1563
20.1563
20.1563
20.1563
20.1563
20.1563
20.1563
20.1538
20.1538
20.1538
20.1514
20.1514
20.1514
20.1490
20.1490
20.1466
20.1466
20.1466
20.1442
20.1442
20.1418
20.1394
20.1394
20.1370
20.1346
20.1346
20.1322
20.1298
20.1274
20.1226
20.1202
20.1178
20.1154
20.1130
20.1106
20.1082
20.1058
20.1034
20.1034
20.1010
20.0986
20.0962
20.0938
20.0938
20.0938
20.0913
20.0913
20.0913
20.0913
20.0889
20.0889
20.0889
20.0865
20.0865
20.0865
20.0865
20.0865
20.0865
20.0865
20.0865
20.0865
20.0865
20.0865
20.0865
20.0865
20.0865
20.0865
20.0865
20.0865
20.0841
20.0841
20.0841
20.0865
20.0865
20.0865
20.0865
20.0865
20.0865
20.0889
20.0889
20.0889
20.0889
20.0889
20.0889
20.0913
20.0913
20.0913
20.0938
20.0938
20.0962
20.0962
20.0962
20.0986
20.1010
20.1010
20.1010
20.1010
20.1034
20.1034
20.1034
20.1034
20.1034
20.1034
20.1058
20.1058
20.1082
20.1082
20.1082
20.1106
20.1106
20.1106
20.1106
20.1106
20.1106
20.1106
20.1106
20.1106
20.1106
20.1106
20.1106
20.1106
20.1106
20.1106
20.1106
20.1106
20.1106
20.1106
20.1106
20.1106
20.1106
20.1106
20.1082
20.1082
20.1082
20.1082
20.1082
20.1082
20.1082
20.1082
20.1082
20.1082
20.1082
20.1082
20.1082
20.1082
20.1082
20.1058
20.1058
20.1058
20.1058
20.1058
20.1034
20.1034
20.1034
20.1034
20.1010
20.1010
20.1010
20.1010
20.1010
20.1010
20.1010
20.1010
20.1010
20.1010
20.1010
20.0986
20.0986
20.0986
20.0986
20.0986
20.0986
20.0986
20.0986
20.0986
20.0986
20.0986
20.0986
20.0986
20.0986
20.0986
20.0986
20.0986
20.0986
20.0986
20.0986
20.0986
20.0986
20.0986
20.0986
20.0986
20.0986
20.0986
20.0986
20.0986
20.0986
20.0986
20.0986
20.0986
20.0986
20.0986
20.0986
20.0986
20.0986
20.0962
20.0962
20.0962
20.0962
20.0962
20.0962
20.0962
20.0962
20.0962
20.0962
20.0962
20.0962
20.0986
20.0986
20.0986
20.0986
20.0986
20.0986
20.0986
20.0986
20.0986
20.0986
20.1010
20.1010
20.1010
20.1010
20.1010
20.1010
20.1010
20.1010
20.1010
20.1010
20.1010
20.1010
20.1010
20.1010
20.1010
20.1010
20.1010
20.1034
20.1034
20.1034
20.1034
20.1034
20.1034
20.1034
20.1034
20.1010
20.1010
20.1010
20.1010
20.1010
20.1010
20.1010
20.1010
20.1010
20.1010
20.1010
20.1010
20.1010
20.1034
20.1034
20.1034
20.1034
20.1034
20.1034
20.1034
20.1034
20.1034
20.1058
20.1058
20.1058
20.1058
20.1058
20.1058
20.1058
20.1058
20.1058
20.1082
20.1082
20.1082
20.1082
20.1082
20.1082
20.1082
20.1082
20.1082
20.1082
20.1082
20.1106
20.1106
20.1106
20.1106
20.1106
20.1106
20.1106
20.1106
20.1106
20.1106
20.1106
20.1106
20.1106
20.1106
20.1106
20.1106
20.1106
20.1106
20.1106
20.1106
20.1106
20.1106
20.1106
20.1106
20.1106
20.1106
20.1130
20.1130
20.1154
20.1154
20.1178
20.1202
20.1226
20.1250
20.1274
20.1298
20.1322
20.1346
20.1346
20.1370
20.1394
20.1394
20.1418
20.1442
20.1466
20.1490
20.1514
20.1538
20.1563
20.1587
20.1587
20.1611
20.1611
20.1611
20.1611
20.1587
20.1587
20.1563
20.1538
20.1538
20.1538
20.1514
20.1490
20.1490
20.1466
20.1442
20.1418
20.1370
20.1346
20.1298
20.1250
20.1202
20.1154
20.1130
20.1082
20.1058
20.1034
20.1010
20.0986
20.0962
20.0962
20.0938
20.0938
20.0938
20.0938
20.0938
20.0938
20.0938
20.0938
20.0938
20.0962
20.0962
20.0962
20.0962
20.0962
20.0962
20.0962
20.0962
20.0962
20.0938
20.0913
20.0889
20.0889
20.0889
20.0938
20.1034
20.1178
20.1442
20.1827
20.2332
20.2957
20.3726
20.4591
20.5529
20.6514
20.7452
20.8317
20.9014
20.9543
20.9784
20.9712
20.9375
20.8750
20.7933
20.6923
20.5817
20.4736
20.3702
20.2764
20.1971
20.1322
20.0865
20.0553
20.0337
20.0192
20.0120
20.0096
20.0120
20.0144
20.0192
20.0216
20.0264
20.0288
20.0313
20.0313
20.0337
20.0361
20.0361
20.0361
20.0361
20.0385
20.0385
20.0409
20.0409
20.0409
20.0433
20.0433
20.0433
20.0433
20.0433
20.0457
20.0457
20.0457
20.0457
20.0481
20.0481
20.0481
20.0505
20.0505
20.0505
20.0529
20.0529
20.0529
20.0529
20.0553
20.0553
20.0553
20.0553
20.0553
20.0553
20.0553
20.0577
20.0577
20.0577
20.0577
20.0577
20.0577
20.0577
20.0577
20.0601
20.0601
20.0601
20.0601
20.0625
20.0625
20.0649
20.0649
20.0673
20.0673
20.0673
20.0697
20.0697
20.0697
20.0721
20.0721
20.0721
20.0745
20.0745
20.0769
20.0769
20.0769
20.0793
20.0793
20.0793
20.0793
20.0817
20.0817
20.0817
20.0841
20.0841
20.0865
20.0889
20.0889
20.0913
20.0938
20.0938
20.0962
20.0962
20.0986
20.1010
20.1010
20.1034
20.1058
20.1082
20.1106
20.1130
20.1154
20.1178
20.1202
20.1226
20.1274
20.1274
20.1298
20.1322
20.1346
20.1370
20.1394
20.1418
20.1442
20.1466
20.1490
20.1514
20.1538
20.1563
20.1587
20.1611
20.1635
20.1635
20.1659
20.1659
20.1683
20.1683
20.1707
20.1707
20.1707
20.1707
20.1707
20.1707
20.1707
20.1707
20.1707
20.1707
20.1707
20.1707
20.1707
20.1683
20.1683
20.1683
20.1659
20.1659
20.1635
20.1635
20.1611
20.1587
20.1563
20.1538
20.1538
20.1514
20.1490
20.1466
20.1442
20.1418
20.1394
20.1346
20.1322
20.1274
20.1226
20.1202
20.1178
20.1130
20.1106
20.1082
20.1058
20.1034
20.1034
20.1010
20.0986
20.0986
20.0962
20.0962
20.0938
20.0938
20.0913
20.0913
20.0889
20.0889
20.0865
20.0865
20.0865
20.0841
20.0841
20.0841
20.0841
20.0841
20.0817
20.0817
20.0817
20.0817
20.0817
20.0817
20.0817
20.0817
20.0817
20.0817
20.0841
20.0841
20.0841
20.0841
20.0841
20.0841
20.0841
20.0865
20.0865
20.0865
20.0865
20.0865
20.0865
20.0865
20.0865
20.0889
20.0889
20.0889
20.0889
20.0889
20.0889
20.0913
20.0913
20.0913
20.0938
20.0938
20.0938
20.0962
20.0962
20.0962
20.0986
20.0986
20.0986
20.1010
20.1010
20.1010
20.1010
20.1034
20.1034
20.1034
20.1058
20.1058
20.1082
20.1082
20.1106
20.1106
20.1106
20.1106
20.1130
20.1130
20.1130
20.1130
20.1130
20.1130
20.1130
20.1130
20.1154
20.1154
20.1154
20.1154
20.1154
20.1154
20.1154
20.1154
20.1130
20.1130
20.1130
20.1130
20.1130
20.1130
20.1130
20.1130
20.1130
20.1130
20.1106
20.1106
20.1106
20.1106
20.1106
20.1082
20.1082
20.1082
20.1082
20.1058
20.1058
20.1058
20.1058
20.1034
20.1034
20.1034
20.1034
20.1034
20.1034
20.1034
20.1034
20.1058
20.1058
20.1058
20.1058
20.1058
20.1034
20.1034
20.1034
20.1034
20.1034
20.1034
20.1034
20.1034
20.1034
20.1034
20.1034
20.1034
20.1034
20.1034
20.1034
20.1034
20.1034
20.1034
20.1034
20.1034
20.1034
20.1010
20.1010
20.1010
20.1010
20.1010
20.1010
20.1010
20.1010
20.1010
20.1010
20.1010
20.1010
20.1034
20.1034
20.1034
20.1034
20.1034
20.1034
20.1034
20.1034
20.1034
20.1034
20.1034
20.1034
20.1034
20.1034
20.1034
20.1034
20.1034
20.1034
20.1034
20.1034
20.1034
20.1034
20.1034
20.1034
20.1034
20.1034
20.1034
20.1034
20.1034
20.1034
20.1058
20.1058
20.1058
20.1058
20.1058
20.1058
20.1058
20.1058
20.1058
20.1058
20.1058
20.1058
20.1058
20.1058
20.1058
20.1058
20.1058
20.1058
20.1058
20.1058
20.1058
20.1058
20.1082
20.1082
20.1082
20.1082
20.1082
20.1106
20.1106
20.1106
20.1106
20.1106
20.1106
20.1106
20.1106
20.1106
20.1106
20.1106
20.1106
20.1106
20.1106
20.1106
20.1106
20.1106
20.1106
20.1106
20.1106
20.1106
20.1106
20.1106
20.1106
20.1106
20.1106
20.1106
20.1106
20.1106
20.1106
20.1106
20.1106
20.1106
20.1130
20.1130
20.1130
20.1130
20.1106
20.1106
20.1106
20.1106
20.1106
20.1106
20.1106
20.1106
20.1130
20.1130
20.1130
20.1130
20.1130
20.1106
20.1106
20.1106
20.1106
20.1106
20.1106
20.1106
20.1106
20.1130
20.1130
20.1130
20.1130
20.1130
20.1130
20.1130
20.1130
20.1130
20.1154
20.1154
20.1154
20.1178
20.1202
20.1202
20.1226
20.1250
20.1274
20.1298
20.1322
20.1346
20.1370
20.1370
20.1394
20.1394
20.1418
20.1442
20.1466
20.1466
20.1490
20.1514
20.1538
20.1538
20.1563
20.1563
20.1587
20.1587
20.1587
20.1587
20.1587
20.1563
20.1563
20.1538
20.1538
20.1514
20.1514
20.1490
20.1466
20.1466
20.1442
20.1418
20.1394
20.1346
20.1298
20.1250
20.1202
20.1154
20.1106
20.1082
20.1058
20.1034
20.1010
20.1010
20.1010
20.0986
20.0986
20.0986
20.0962
20.0962
20.0962
20.0962
20.0962
20.0962
20.0962
20.0986
20.0986
20.0986
20.1010
20.1010
20.1010
20.1010
20.0986
20.0986
20.0962
20.0938
20.0938
20.0913
20.0889
20.0889
20.0962
20.1058
20.1226
20.1514
20.1923
20.2476
20.3149
20.3966
20.4880
20.5865
20.6851
20.7788
20.8630
20.9303
20.9760
20.9904
20.9760
20.9327
20.8654
20.7764
20.6707
20.5601
20.4519
20.3486
20.2596
20.1827
20.1250
20.0817
20.0529
20.0337
20.0216
20.0168
20.0144
20.0168
20.0192
20.0216
20.0240
20.0264
20.0288
20.0313
20.0337
20.0337
20.0361
20.0361
20.0361
20.0361
20.0361
20.0361
20.0361
20.0361
20.0361
20.0385
20.0385
20.0385
20.0385
20.0409
20.0409
20.0409
20.0433
20.0433
20.0457
20.0457
20.0457
20.0481
20.0481
20.0481
20.0481
20.0481
20.0505
20.0505
20.0505
20.0505
20.0505
20.0505
20.0505
20.0529
20.0529
20.0529
20.0553
20.0553
20.0553
20.0577
20.0577
20.0577
20.0601
20.0601
20.0601
20.0601
20.0601
20.0625
20.0625
20.0625
20.0625
20.0649
20.0649
20.0649
20.0649
20.0673
20.0673
20.0673
20.0673
20.0697
20.0697
20.0697
20.0721
20.0721
20.0721
20.0745
20.0745
20.0769
20.0769
20.0769
20.0793
20.0793
20.0793
20.0793
20.0817
20.0817
20.0841
20.0865
20.0865
20.0889
20.0913
20.0913
20.0938
20.0962
20.0986
20.0986
20.1010
20.1034
20.1058
20.1058
20.1082
20.1106
20.1130
20.1154
20.1178
20.1202
20.1226
20.1274
20.1298
20.1322
20.1370
20.1394
20.1418
20.1442
20.1466
20.1490
20.1514
20.1538
20.1538
20.1563
20.1587
20.1611
20.1635
20.1635
20.1659
20.1659
20.1683
20.1683
20.1683
20.1707
20.1707
20.1707
20.1731
20.1731
20.1731
20.1731
20.1731
20.1731
20.1731
20.1731
20.1731
20.1731
20.1707
20.1707
20.1683
20.1683
20.1659
20.1635
20.1611
20.1587
20.1563
20.1538
20.1514
20.1490
20.1442
20.1418
20.1370
20.1346
20.1298
20.1274
20.1226
20.1202
20.1178
20.1130
20.1106
20.1058
20.1034
20.1010
20.0986
20.0962
20.0962
20.0938
20.0913
20.0913
20.0889
20.0889
20.0865
20.0865
20.0865
20.0841
20.0841
20.0841
20.0841
20.0817
20.0817
20.0817
20.0817
20.0817
20.0817
20.0817
20.0793
20.0793
20.0793
20.0793
20.0793
20.0793
20.0793
20.0793
20.0817
20.0817
20.0817
20.0817
20.0817
20.0817
20.0817
20.0841
20.0841
20.0841
20.0841
20.0841
20.0841
20.0841
20.0841
20.0865
20.0865
20.0865
20.0889
20.0889
20.0913
20.0913
20.0913
20.0913
20.0913
20.0938
20.0938
20.0938
20.0938
20.0938
20.0938
20.0962
20.0962
20.0962
20.0986
20.0986
20.1010
20.1010
20.1010
20.1010
20.1034
20.1034
20.1034
20.1034
20.1034
20.1058
20.1058
20.1058
20.1082
20.1082
20.1082
20.1082
20.1106
20.1106
20.1106
20.1106
20.1106
20.1106
20.1106
20.1106
20.1106
20.1106
20.1106
20.1106
20.1106
20.1106
20.1106
20.1106
20.1106
20.1106
20.1082
20.1082
20.1082
20.1082
20.1058
20.1058
20.1058
20.1058
20.1058
20.1058
20.1058
20.1058
20.1058
20.1058
20.1058
20.1058
20.1058
20.1058
20.1034
20.1034
20.1034
20.1034
20.1034
20.1034
20.1034
20.1034
20.1034
20.1034
20.1010
20.1010
20.1010
20.1010
20.1010
20.0986
20.0986
20.0986
20.0986
20.0986
20.0986
20.0986
20.0986
20.1010
20.1010
20.1010
20.1010
20.1010
20.1010
20.1010
20.1010
20.1010
20.1010
20.1010
20.1010
20.0986
20.0986
20.0986
20.0986
20.1010
20.1010
20.1010
20.1010
20.1010
20.1010
20.1010
20.1010
20.1010
20.1010
20.1010
20.1010
20.1010
20.1010
20.1010
20.1010
20.1010
20.1010
20.1010
20.1010
20.1010
20.0986
20.0986
20.0986
20.0986
20.0986
20.0986
20.0986
20.0986
20.0986
20.0986
20.0986
20.0986
20.0986
20.1010
20.1010
20.1010
20.1010
20.1010
20.1034
20.1034
20.1034
20.1034
20.1034
20.1034
20.1034
20.1034
20.1034
20.1034
20.1034
20.1034
20.1034
20.1034
20.1034
20.1034
20.1034
20.1058
20.1058
20.1058
20.1058
20.1058
20.1058
20.1058
20.1058
20.1058
20.1058
20.1058
20.1058
20.1082
20.1082
20.1082
20.1082
20.1082
20.1082
20.1058
20.1058
20.1058
20.1058
20.1058
20.1058
20.1058
20.1058
20.1058
20.1058
20.1058
20.1058
20.1058
20.1058
20.1058
20.1058
20.1058
20.1082
20.1082
20.1082
20.1082
20.1082
20.1082
20.1082
20.1106
20.1106
20.1082
20.1082
20.1106
20.1106
20.1106
20.1106
20.1106
20.1106
20.1106
20.1082
20.1082
20.1082
20.1082
20.1082
20.1082
20.1058
20.1058
20.1058
20.1058
20.1058
20.1058
20.1058
20.1058
20.1082
20.1082
20.1082
20.1082
20.1106
20.1106
20.1106
20.1106
20.1130
20.1130
20.1130
20.1130
20.1130
20.1130
20.1130
20.1130
20.1130
20.1130
20.1130
20.1130
20.1130
20.1130
20.1130
20.1130
20.1130
20.1130
20.1130
20.1130
20.1154
20.1154
20.1154
20.1154
20.1154
20.1178
20.1178
20.1178
20.1178
20.1178
20.1154
20.1154
20.1154
20.1154
20.1154
20.1178
20.1178
20.1202
20.1226
20.1250
20.1274
20.1298
20.1322
20.1346
20.1346
20.1370
20.1370
20.1394
20.1394
20.1418
20.1418
20.1442
20.1466
20.1490
20.1514
20.1538
20.1563
20.1563
20.1587
20.1587
20.1611
20.1587
20.1587
20.1587
20.1587
20.1563
20.1563
20.1563
20.1538
20.1538
20.1514
20.1490
20.1466
20.1442
20.1394
20.1346
20.1298
20.1250
20.1202
20.1154
20.1130
20.1106
20.1058
20.1058
20.1034
20.1010
20.1010
20.0986
20.0986
20.0962
20.0962
20.0938
20.0938
20.0938
20.0938
20.0938
20.0938
20.0938
20.0938
20.0938
20.0962
20.0962
20.0962
20.0962
20.0962
20.0938
20.0938
20.0913
20.0889
20.0865
20.0841
20.0841
20.0865
20.0962
20.1106
20.1370
20.1755
20.2260
20.2933
20.3702
20.4591
20.5577
20.6563
20.7524
20.8413
20.9135
20.9615
20.9856
20.9784
20.9423
20.8798
20.7957
20.6947
20.5841
20.4736
20.3678
20.2740
20.1947
20.1298
20.0841
20.0505
20.0264
20.0144
20.0072
20.0048
20.0048
20.0072
20.0120
20.0144
20.0168
20.0192
20.0216
20.0240
20.0264
20.0264
20.0264
20.0264
20.0288
20.0288
20.0288
20.0288
20.0288
20.0288
20.0313
20.0313
20.0313
20.0337
20.0337
20.0337
20.0361
20.0361
20.0361
20.0361
20.0385
20.0385
20.0385
20.0385
20.0385
20.0385
20.0409
20.0409
20.0409
20.0433
20.0433
20.0433
20.0457
20.0457
20.0481
20.0481
20.0481
20.0505
20.0505
20.0505
20.0529
20.0529
20.0529
20.0529
20.0529
20.0529
20.0529
20.0529
20.0529
20.0529
20.0529
20.0553
20.0553
20.0553
20.0577
20.0577
20.0577
20.0601
20.0601
20.0601
20.0625
20.0625
20.0625
20.0649
20.0649
20.0649
20.0673
20.0673
20.0673
20.0697
20.0697
20.0721
20.0721
20.0745
20.0745
20.0769
20.0769
20.0793
20.0793
20.0817
20.0817
20.0841
20.0841
20.0865
20.0889
20.0889
20.0913
20.0938
20.0962
20.0986
20.1010
20.1034
20.1058
20.1058
20.1082
20.1106
20.1130
20.1154
20.1178
20.1226
20.1250
20.1274
20.1298
20.1322
20.1370
20.1394
20.1418
20.1442
20.1466
20.1466
20.1490
20.1514
20.1538
20.1563
20.1563
20.1587
20.1587
20.1611
20.1611
20.1611
20.1611
20.1611
20.1635
20.1635
20.1635
20.1635
20.1635
20.1635
20.1635
20.1635
20.1635
20.1611
20.1611
20.1611
20.1587
20.1587
20.1563
20.1563
20.1538
20.1538
20.1514
20.1490
20.1466
20.1442
20.1418
20.1394
20.1370
20.1346
20.1298
20.1274
20.1226
20.1202
20.1178
20.1130
20.1106
20.1082
20.1058
20.1034
20.1010
20.0986
20.0962
20.0962
20.0938
20.0913
20.0913
20.0889
20.0865
20.0865
20.0841
20.0841
20.0841
20.0817
20.0817
20.0817
20.0817
20.0817
20.0817
20.0817
20.0793
20.0793
20.0793
20.0793
20.0769
20.0769
20.0769
20.0769
20.0769
20.0769
20.0769
20.0769
20.0769
20.0769
20.0769
20.0769
20.0769
20.0769
20.0793
20.0793
20.0793
20.0793
20.0793
20.0817
20.0817
20.0817
20.0841
20.0841
20.0841
20.0841
20.0841
20.0865
20.0865
20.0865
20.0865
20.0865
20.0889
20.0889
20.0889
20.0889
20.0889
20.0913
20.0913
20.0938
20.0938
20.0962
20.0962
20.0962
20.0962
20.0986
20.0986
20.0986
20.1010
20.1010
20.1010
20.1034
20.1034
20.1058
20.1058
20.1058
20.1058
20.1058
20.1058
20.1058
20.1058
20.1058
20.1082
20.1082
20.1082
20.1082
20.1082
20.1082
20.1082
20.1082
20.1082
20.1082
20.1082
20.1058
20.1058
20.1058
20.1058
20.1034
20.1034
20.1034
20.1034
20.1034
20.1034
20.1010
20.1010
20.1010
20.1010
20.1010
20.1010
20.1010
20.1010
20.0986
20.0986
20.0986
20.0986
20.0986
20.0986
20.0986
20.0986
20.0986
20.0986
20.0962
20.0962
20.0962
20.0962
20.0962
20.0962
20.0962
20.0962
20.0962
20.0962
20.0962
20.0962
20.0962
20.0962
20.0962
20.0962
20.0962
20.0962
20.0962
20.0962
20.0962
20.0962
20.0962
20.0962
20.0962
20.0962
20.0962
20.0962
20.0962
20.0962
20.0962
20.0962
20.0962
20.0962
20.0962
20.0962
20.0962
20.0962
20.0962
20.0938
20.0962
20.0962
20.0962
20.0962
20.0962
20.0962
20.0962
20.0962
20.0962
20.0962
20.0962
20.0962
20.0962
20.0986
20.0986
20.0986
20.0986
20.0986
20.0986
20.0986
20.0986
20.0986
20.0986
20.0986
20.0962
20.0962
20.0962
20.0962
20.0962
20.0962
20.0962
20.0962
20.0986
20.0986
20.0986
20.0986
20.1010
20.1010
20.1010
20.1010
20.1010
20.1010
20.1010
20.1010
20.1010
20.1034
20.1034
20.1034
20.1034
20.1034
20.1058
20.1058
20.1058
20.1058
20.1058
20.1034
20.1034
20.1034
20.1034
20.1034
20.1034
20.1034
20.1034
20.1034
20.1034
20.1034
20.1034
20.1058
20.1058
20.1058
20.1034
20.1034
20.1034
20.1034
20.1034
20.1034
20.1034
20.1058
20.1058
20.1058
20.1058
20.1058
20.1058
20.1082
20.1082
20.1082
20.1082
20.1058
20.1058
20.1058
20.1058
20.1082
20.1082
20.1082
20.1082
20.1106
20.1106
20.1106
20.1106
20.1106
20.1106
20.1130
20.1130
20.1154
20.1154
20.1178
20.1202
20.1226
20.1250
20.1274
20.1298
20.1298
20.1322
20.1346
20.1346
20.1370
20.1394
20.1418
20.1418
20.1442
20.1466
20.1490
20.1514
20.1538
20.1563
20.1563
20.1587
20.1587
20.1587
20.1587
20.1587
20.1587
20.1563
20.1563
20.1538
20.1538
20.1514
20.1490
20.1466
20.1466
20.1418
20.1394
20.1370
20.1322
20.1274
20.1226
20.1178
20.1130
20.1106
20.1058
20.1034
20.1010
20.0986
20.0962
20.0962
20.0938
20.0938
20.0938
20.0938
20.0938
20.0938
20.0938
20.0938
20.0938
20.0938
20.0938
20.0938
20.0938
20.0938
20.0962
20.0962
20.0938
20.0938
20.0938
20.0938
20.0913
20.0889
20.0889
20.0889
20.0889
20.0938
20.1034
20.1202
20.1466
20.1827
20.2332
20.2957
20.3726
20.4567
20.5505
20.6442
20.7332
20.8149
20.8798
20.9231
20.9399
20.9255
20.8846
20.8173
20.7308
20.6298
20.5216
20.4135
20.3149
20.2284
20.1563
20.1010
20.0625
20.0361
20.0192
20.0096
20.0048
20.0072
20.0096
20.0144
20.0192
20.0240
20.0288
20.0337
20.0361
20.0385
20.0409
20.0409
20.0409
20.0433
20.0433
20.0457
20.0457
20.0457
20.0457
20.0481
20.0481
20.0481
20.0481
20.0481
20.0481
20.0481
20.0505
20.0505
20.0505
20.0505
20.0529
20.0529
20.0553
20.0553
20.0577
20.0577
20.0577
20.0601
20.0601
20.0601
20.0601
20.0625
20.0625
20.0625
20.0625
20.0625
20.0625
20.0625
20.0649
20.0649
20.0649
20.0673
20.0673
20.0673
20.0673
20.0697
20.0697
20.0697
20.0697
20.0721
20.0721
20.0721
20.0721
20.0721
20.0745
20.0745
20.0745
20.0745
20.0745
20.0769
20.0769
20.0769
20.0769
20.0793
20.0793
20.0793
20.0793
20.0817
20.0817
20.0841
20.0841
20.0865
20.0865
20.0889
20.0889
20.0913
20.0913
20.0938
20.0962
20.0962
20.0986
20.1010
20.1010
20.1034
20.1058
20.1082
20.1082
20.1106
20.1130
20.1154
20.1178
20.1202
20.1226
20.1274
20.1298
20.1322
20.1346
20.1370
20.1394
20.1442
20.1466
20.1490
20.1514
20.1514
20.1538
20.1563
20.1587
20.1611
20.1635
20.1659
20.1683
20.1707
20.1731
20.1755
20.1779
20.1779
20.1803
20.1803
20.1827
20.1827
20.1827
20.1827
20.1827
20.1827
20.1827
20.1827
20.1827
20.1827
20.1827
20.1827
20.1827
20.1827
20.1803
20.1803
20.1779
20.1755
20.1731
20.1707
20.1683
20.1659
20.1635
20.1587
20.1563
20.1538
20.1490
20.1466
20.1418
20.1394
20.1346
20.1322
20.1274
20.1226
20.1202
20.1178
20.1130
20.1106
20.1082
20.1058
20.1034
20.1010
20.0986
20.0962
20.0962
20.0938
20.0913
20.0913
20.0889
20.0889
20.0865
20.0865
20.0865
20.0841
20.0841
20.0841
20.0817
20.0817
20.0817
20.0817
20.0817
20.0817
20.0817
20.0793
20.0817
20.0817
20.0817
20.0817
20.0817
20.0817
20.0817
20.0817
20.0817
20.0841
20.0841
20.0841
20.0865
20.0865
20.0865
20.0865
20.0865
20.0865
20.0865
20.0865
20.0865
20.0889
20.0889
20.0889
20.0889
20.0889
20.0889
20.0889
20.0889
20.0889
20.0889
20.0913
20.0913
20.0913
20.0913
20.0938
20.0938
20.0938
20.0962
20.0962
20.0962
20.0986
20.0986
20.1010
20.1010
20.1010
20.1034
20.1034
20.1058
20.1058
20.1058
20.1082
20.1082
20.1082
20.1106
20.1106
20.1106
20.1106
20.1106
20.1106
20.1106
20.1106
20.1106
20.1106
20.1106
20.1106
20.1106
20.1082
20.1082
20.1082
20.1082
20.1082
20.1106
20.1106
20.1106
20.1082
20.1082
20.1082
20.1082
20.1058
20.1058
20.1058
20.1034
20.1034
20.1034
20.1010
20.1010
20.1010
20.1010
20.0986
20.0986
20.0986
20.0962
20.0962
20.0962
20.0962
20.0962
20.0962
20.0962
20.0962
20.0962
20.0962
20.0962
20.0962
20.0962
20.0962
20.0962
20.0962
20.0962
20.0962
20.0962
20.0962
20.0962
20.0962
20.0962
20.0962
20.0938
20.0938
20.0938
20.0938
20.0938
20.0938
20.0938
20.0938
20.0938
20.0938
20.0938
20.0938
20.0938
20.0938
20.0938
20.0938
20.0938
20.0938
20.0938
20.0938
20.0938
20.0938
20.0938
20.0938
20.0962
20.0962
20.0962
20.0962
20.0962
20.0962
20.0962
20.0962
20.0962
20.0938
20.0938
20.0938
20.0938
20.0938
20.0962
20.0962
20.0962
20.0962
20.0962
20.0962
20.0962
20.0962
20.0962
20.0962
20.0962
20.0986
20.0986
20.0986
20.0986
20.0986
20.0986
20.0986
20.0986
20.0986
20.1010
20.1010
20.1010
20.1010
20.1010
20.1010
20.1010
20.0986
20.0986
20.1010
20.1010
20.1010
20.1010
20.1010
20.1010
20.1010
20.1010
20.1010
20.1010
20.1010
20.0986
20.0986
20.0986
20.0986
20.1010
20.1010
20.1010
20.1010
20.1010
20.1010
20.1034
20.1034
20.1034
20.1034
20.1034
20.1034
20.1034
20.1034
20.1034
20.1034
20.1058
20.1058
20.1058
20.1058
20.1058
20.1058
20.1082
20.1082
20.1082
20.1082
20.1082
20.1082
20.1082
20.1082
20.1082
20.1106
20.1106
20.1106
20.1130
20.1130
20.1154
20.1178
20.1202
20.1226
20.1250
20.1274
20.1298
20.1322
20.1322
20.1346
20.1370
20.1394
20.1394
20.1418
20.1442
20.1466
20.1490
20.1514
20.1538
20.1563
20.1563
20.1587
20.1587
20.1587
20.1587
20.1587
20.1563
20.1563
20.1538
20.1538
20.1514
20.1514
20.1490
20.1490
20.1466
20.1466
20.1442
20.1418
20.1370
20.1346
20.1298
20.1250
20.1202
20.1154
20.1130
20.1082
20.1058
20.1034
20.1010
20.0986
20.0986
20.0962
20.0962
20.0962
20.0962
20.0962
20.0962
20.0962
20.0962
20.0962
20.0962
20.0962
20.0962
20.0962
20.0962
20.0962
20.0962
20.0962
20.0962
20.0938
20.0938
20.0938
20.0913
20.0889
20.0889
20.0865
20.0889
20.0938
20.1058
20.1274
20.1587
20.2043
20.2620
20.3341
20.4207
20.5144
20.6130
20.7115
20.8053
20.8846
20.9447
20.9808
20.9856
20.9615
20.9087
20.8317
20.7356
20.6298
20.5168
20.4111
20.3125
20.2284
20.1587
20.1058
20.0673
20.0433
20.0264
20.0168
20.0120
20.0120
20.0144
20.0192
20.0216
20.0240
20.0264
20.0288
20.0313
20.0313
20.0337
20.0337
20.0337
20.0337
20.0337
20.0337
20.0361
20.0361
20.0361
20.0385
20.0385
20.0409
20.0409
20.0433
20.0433
20.0433
20.0457
20.0457
20.0457
20.0457
20.0457
20.0457
20.0481
20.0481
20.0481
20.0481
20.0505
20.0505
20.0505
20.0529
20.0529
20.0529
20.0529
20.0553
20.0553
20.0553
20.0577
20.0577
20.0577
20.0601
20.0601
20.0601
20.0601
20.0625
20.0625
20.0625
20.0625
20.0625
20.0625
20.0625
20.0625
20.0625
20.0625
20.0625
20.0625
20.0649
20.0649
20.0673
20.0673
20.0697
20.0697
20.0721
20.0721
20.0745
20.0745
20.0769
20.0769
20.0769
20.0793
20.0793
20.0817
20.0817
20.0841
20.0841
20.0865
20.0865
20.0889
20.0889
20.0889
20.0913
20.0913
20.0938
20.0962
20.0962
20.0986
20.1010
20.1010
20.1034
20.1058
20.1082
20.1106
20.1106
20.1130
20.1154
20.1202
20.1226
20.1250
20.1298
20.1322
20.1346
20.1394
20.1418
20.1442
20.1466
20.1490
20.1514
20.1538
20.1563
20.1587
20.1611
20.1611
20.1635
20.1659
20.1683
20.1707
20.1707
20.1731
20.1731
20.1755
20.1755
20.1779
20.1779
20.1779
20.1779
20.1779
20.1779
20.1779
20.1779
20.1779
20.1755
20.1755
20.1755
20.1755
20.1731
20.1731
20.1707
20.1707
20.1683
20.1659
20.1635
20.1611
20.1563
20.1538
20.1514
20.1490
20.1442
20.1418
20.1370
20.1346
20.1298
20.1250
20.1202
20.1178
20.1130
20.1106
20.1058
20.1034
20.1010
20.0986
20.0962
20.0938
20.0938
20.0913
20.0889
20.0889
20.0865
20.0865
20.0841
20.0841
20.0817
20.0817
20.0817
20.0793
20.0793
20.0793
20.0793
20.0793
20.0793
20.0793
20.0793
20.0793
20.0793
20.0793
20.0793
20.0793
20.0793
20.0793
20.0793
20.0793
20.0793
20.0793
20.0793
20.0793
20.0793
20.0793
20.0793
20.0817
20.0817
20.0817
20.0817
20.0841
20.0841
20.0841
20.0841
20.0841
20.0841
20.0841
20.0841
20.0841
20.0841
20.0865
20.0865
20.0865
20.0865
20.0865
20.0889
20.0889
20.0889
20.0913
20.0913
20.0913
20.0938
20.0938
20.0962
20.0962
20.0962
20.0962
20.0986
20.0986
20.0986
20.0986
20.1010
20.1010
20.1010
20.1010
20.1010
20.1034
20.1034
20.1034
20.1058
20.1058
20.1082
20.1082
20.1106
20.1106
20.1106
20.1106
20.1130
20.1130
20.1130
20.1130
20.1130
20.1130
20.1130
20.1130
20.1130
20.1130
20.1130
20.1130
20.1106
20.1106
20.1106
20.1106
20.1082
20.1082
20.1082
20.1082
20.1058
20.1058
20.1058
20.1058
20.1034
20.1034
20.1034
20.1034
20.1034
20.1034
20.1034
20.1034
20.1010
20.1010
20.1010
20.1010
20.1010
20.1010
20.0986
20.0986
20.0986
20.0986
20.0986
20.0986
20.0986
20.0986
20.0986
20.0986
20.0986
20.0986
20.0986
20.0986
20.0986
20.0986
20.1010
20.1010
20.1010
20.1010
20.1010
20.1010
20.1010
20.1010
20.1010
20.0986
20.0986
20.0986
20.0986
20.0986
20.0986
20.0986
20.0986
20.0986
20.0986
20.0986
20.0986
20.0986
20.0986
20.0986
20.0986
20.0986
20.0986
20.0986
20.0986
20.0986
20.0986
20.0986
20.0986
20.0986
20.0986
20.0986
20.0986
20.0986
20.0986
20.0986
20.0986
20.0986
20.0986
20.0986
20.0986
20.1010
20.1010
20.1010
20.1010
20.1034
20.1034
20.1034
20.1034
20.1034
20.1034
20.1034
20.1034
20.1034
20.1034
20.1034
20.1034
20.1034
20.1034
20.1034
20.1034
20.1034
20.1034
20.1034
20.1034
20.1034
20.1034
20.1034
20.1034
20.1034
20.1034
20.1034
20.1034
20.1058
20.1058
20.1058
20.1058
20.1058
20.1058
20.1058
20.1058
20.1058
20.1058
20.1058
20.1058
20.1058
20.1058
20.1058
20.1058
20.1058
20.1058
20.1058
20.1058
20.1082
20.1082
20.1082
20.1082
20.1082
20.1082
20.1082
20.1082
20.1082
20.1082
20.1082
20.1082
20.1082
20.1082
20.1082
20.1082
20.1082
20.1082
20.1082
20.1082
20.1082
20.1082
20.1058
20.1058
20.1058
20.1058
20.1058
20.1058
20.1058
20.1058
20.1058
20.1058
20.1082
20.1082
20.1082
20.1082
20.1106
20.1106
20.1106
20.1106
20.1106
20.1106
20.1106
20.1106
20.1106
20.1106
20.1106
20.1106
20.1106
20.1106
20.1106
20.1106
20.1106
20.1106
20.1106
20.1106
20.1106
20.1106
20.1106
20.1106
20.1106
20.1106
20.1106
20.1106
20.1106
20.1106
20.1106
20.1106
20.1106
20.1106
20.1106
20.1106
20.1082
20.1082
20.1082
20.1106
20.1106
20.1106
20.1106
20.1106
20.1106
20.1106
20.1106
20.1106
20.1106
20.1130
20.1130
20.1130
20.1130
20.1130
20.1130
20.1130
20.1130
20.1130
20.1130
20.1130
20.1130
20.1130
20.1130
20.1130
20.1130
20.1106
20.1106
20.1106
20.1106
20.1106
20.1106
20.1106
20.1106
20.1130
20.1130
20.1130
20.1130
20.1130
20.1130
20.1130
20.1106
20.1106
20.1106
20.1106
20.1106
20.1106
20.1106
20.1106
20.1106
20.1130
20.1130
20.1130
20.1130
20.1154
20.1154
20.1178
20.1202
20.1226
20.1250
20.1274
20.1298
20.1322
20.1346
20.1370
20.1370
20.1394
20.1418
20.1418
20.1442
20.1466
20.1466
20.1490
20.1514
20.1538
20.1563
20.1563
20.1587
20.1587
20.1611
20.1611
20.1587
20.1587
20.1587
20.1563
20.1538
20.1538
20.1514
20.1514
20.1490
20.1466
20.1442
20.1418
20.1394
20.1346
20.1298
20.1250
20.1202
20.1178
20.1130
20.1082
20.1058
20.1034
20.1034
20.1010
20.0986
20.0986
20.0986
20.0962
20.0962
20.0962
20.0962
20.0962
20.0962
20.0962
20.0962
20.0962
20.0962
20.0962
20.0962
20.0962
20.0986
20.0986
20.0986
20.0962
20.0962
20.0938
20.0913
20.0889
20.0889
20.0889
20.0938
20.1034
20.1226
20.1538
20.1971
20.2524
20.3221
20.4038
20.4952
20.5938
20.6923
20.7861
20.8702
20.9351
20.9784
20.9928
20.9784
20.9351
20.8678
20.7788
20.6755
20.5649
20.4543
20.3534
20.2644
20.1875
20.1274
20.0841
20.0529
20.0337
20.0192
20.0144
20.0120
20.0144
20.0168
20.0192
20.0240
20.0264
20.0288
20.0288
20.0313
20.0313
20.0337
20.0337
20.0337
20.0337
20.0337
20.0337
20.0361
20.0361
20.0361
20.0385
20.0385
20.0409
20.0409
20.0409
20.0409
20.0409
20.0409
20.0409
20.0409
20.0409
20.0409
20.0433
20.0433
20.0433
20.0457
20.0457
20.0457
20.0457
20.0481
20.0481
20.0481
20.0505
20.0505
20.0505
20.0529
20.0529
20.0529
20.0553
20.0553
20.0553
20.0577
20.0577
20.0577
20.0601
20.0601
20.0601
20.0601
20.0625
20.0625
20.0625
20.0625
20.0625
20.0625
20.0649
20.0649
20.0649
20.0649
20.0673
20.0673
20.0697
20.0697
20.0697
20.0697
20.0697
20.0721
20.0721
20.0721
20.0721
20.0721
20.0745
20.0745
20.0745
20.0769
20.0793
20.0793
20.0817
20.0817
20.0841
20.0865
20.0865
20.0889
20.0889
20.0913
20.0913
20.0938
20.0938
20.0962
20.0986
20.0986
20.1010
20.1034
20.1058
20.1082
20.1106
20.1154
20.1178
20.1226
20.1250
20.1274
20.1322
20.1346
20.1370
20.1394
20.1394
20.1418
20.1442
20.1466
20.1466
20.1490
20.1514
20.1514
20.1538
20.1538
20.1563
20.1563
20.1587
20.1587
20.1611
20.1611
20.1611
20.1611
20.1635
20.1635
20.1611
20.1611
20.1611
20.1611
20.1611
20.1611
20.1611
20.1611
20.1611
20.1611
20.1611
20.1587
20.1587
20.1563
20.1563
20.1538
20.1538
20.1514
20.1490
20.1466
20.1466
20.1442
20.1418
20.1394
20.1370
20.1322
20.1298
20.1274
20.1226
20.1202
20.1178
20.1154
20.1130
20.1106
20.1082
20.1058
20.1034
20.1010
20.0986
20.0962
20.0938
20.0913
20.0913
20.0889
20.0889
20.0865
20.0865
20.0865
20.0865
20.0841
20.0841
20.0841
20.0841
20.0841
20.0841
20.0817
20.0817
20.0817
20.0817
20.0817
20.0817
20.0817
20.0817
20.0817
20.0817
20.0841
20.0841
20.0841
20.0841
20.0841
20.0865
20.0865
20.0865
20.0865
20.0865
20.0865
20.0865
20.0865
20.0889
20.0889
20.0889
20.0889
20.0913
20.0913
20.0913
20.0913
20.0913
20.0913
20.0913
20.0913
20.0938
20.0938
20.0938
20.0938
20.0962
20.0962
20.0962
20.0986
20.0986
20.1010
20.1010
20.1034
20.1034
20.1058
20.1058
20.1058
20.1058
20.1082
20.1082
20.1082
20.1082
20.1106
20.1106
20.1106
20.1106
20.1106
20.1106
20.1130
20.1130
20.1130
20.1130
20.1130
20.1130
20.1130
20.1130
20.1130
20.1130
20.1130
20.1130
20.1106
20.1106
20.1106
20.1106
20.1106
20.1106
20.1106
20.1082
20.1082
20.1082
20.1082
20.1058
20.1058
20.1058
20.1058
20.1058
20.1058
20.1058
20.1058
20.1058
20.1034
20.1034
20.1034
20.1034
20.1034
20.1034
20.1034
20.1034
20.1034
20.1034
20.1034
20.1010
20.1010
20.1010
20.1010
20.1010
20.1010
20.1010
20.1010
20.1010
20.1010
20.1010
20.1010
20.1010
20.1010
20.1010
20.1010
20.1010
20.1010
20.1010
20.1010
20.1010
20.1010
20.1010
20.1010
20.1010
20.1010
20.1010
20.0986
20.0986
20.0986
20.0986
20.0986
20.0986
20.0986
20.0986
20.0986
20.0986
20.0986
20.0986
20.0986
20.0986
20.0986
20.0986
20.0986
20.0986
20.0986
20.0986
20.0986
20.0986
20.0986
20.0986
20.0986
20.1010
20.1010
20.1010
20.1010
20.1010
20.1010
20.1010
20.1010
20.1010
20.0986
20.0986
20.0986
20.0986
20.0986
20.0986
20.0986
20.1010
20.1010
20.1010
20.1010
20.1010
20.1010
20.1010
20.1034
20.1034
20.1034
20.1034
20.1034
20.1034
20.1034
20.1034
20.1034
20.1034
20.1034
20.1034
20.1034
20.1034
20.1034
20.1034
20.1034
20.1034
20.1034
20.1010
20.1034
20.1034
20.1034
20.1034
20.1034
20.1034
20.1034
20.1034
20.1034
20.1034
20.1034
20.1034
20.1034
20.1058
20.1058
20.1058
20.1058
20.1058
20.1058
20.1058
20.1058
20.1058
20.1058
20.1058
20.1058
20.1058
20.1034
20.1058
20.1058
20.1058
20.1058
20.1058
20.1058
20.1058
20.1058
20.1082
20.1082
20.1082
20.1082
20.1082
20.1058
20.1058
20.1058
20.1082
20.1082
20.1082
20.1082
20.1082
20.1106
20.1106
20.1106
20.1106
20.1130
20.1130
20.1154
20.1178
20.1202
20.1202
20.1226
20.1274
20.1298
20.1298
20.1322
20.1346
20.1370
20.1370
20.1394
20.1418
20.1442
20.1466
20.1490
20.1490
20.1514
20.1538
20.1538
20.1563
20.1563
20.1563
20.1563
20.1538
20.1538
20.1514
20.1514
20.1490
20.1490
20.1490
20.1466
20.1466
20.1442
20.1418
20.1394
20.1346
20.1298
20.1250
20.1202
20.1154
20.1106
20.1058
20.1034
20.1010
20.0986
20.0962
20.0938
20.0938
20.0938
20.0938
20.0938
20.0913
20.0938
20.0938
20.0938
20.0938
20.0938
20.0938
20.0938
20.0938
20.0938
20.0938
20.0962
20.0962
20.0962
20.0962
20.0938
20.0938
20.0913
20.0913
20.0889
20.0913
20.0938
20.1010
20.1178
20.1394
20.1755
20.2212
20.2813
20.3534
20.4375
20.5264
20.6202
20.7115
20.7957
20.8678
20.9159
20.9399
20.9351
20.9014
20.8389
20.7572
20.6587
20.5481
20.4399
20.3389
20.2500
20.1731
20.1154
20.0721
20.0433
20.0240
20.0144
20.0096
20.0096
20.0120
20.0168
20.0216
20.0264
20.0288
20.0337
20.0361
20.0385
20.0409
20.0409
20.0433
20.0433
20.0433
20.0433
20.0433
20.0433
20.0457
20.0457
20.0457
20.0457
20.0481
20.0481
20.0481
20.0505
20.0505
20.0505
20.0505
20.0505
20.0505
20.0505
20.0529
20.0529
20.0529
20.0553
20.0553
20.0577
20.0577
20.0601
20.0601
20.0601
20.0601
20.0601
20.0601
20.0601
20.0601
20.0625
20.0625
20.0625
20.0625
20.0625
20.0649
20.0649
20.0649
20.0673
20.0673
20.0673
20.0673
20.0697
20.0697
20.0697
20.0697
20.0721
20.0721
20.0721
20.0721
20.0721
20.0745
20.0745
20.0745
20.0769
20.0769
20.0769
20.0793
20.0793
20.0793
20.0817
20.0817
20.0841
20.0841
20.0841
20.0865
20.0865
20.0889
20.0889
20.0913
20.0913
20.0938
20.0962
20.0962
20.0986
20.1010
20.1010
20.1034
20.1058
20.1082
20.1106
20.1130
20.1154
20.1178
20.1202
20.1226
20.1250
20.1274
20.1298
20.1322
20.1346
20.1370
20.1394
20.1442
20.1466
20.1490
20.1514
20.1563
20.1587
20.1611
20.1635
20.1659
20.1683
20.1707
20.1707
20.1731
20.1755
20.1755
20.1779
20.1779
20.1803
20.1803
20.1803
20.1827
20.1827
20.1827
20.1827
20.1827
20.1827
20.1827
20.1827
20.1827
20.1827
20.1803
20.1803
20.1803
20.1779
20.1779
20.1755
20.1731
20.1707
20.1683
20.1659
20.1635
20.1587
20.1563
20.1538
20.1490
20.1466
20.1442
20.1394
20.1346
20.1322
20.1274
20.1250
20.1202
20.1178
20.1130
20.1106
20.1058
20.1034
20.1010
20.1010
20.0986
20.0962
20.0938
20.0913
20.0913
20.0889
20.0865
20.0841
20.0841
20.0817
20.0817
20.0817
20.0793
20.0793
20.0793
20.0793
20.0793
20.0793
20.0793
20.0793
20.0793
20.0793
20.0793
20.0793
20.0793
20.0793
20.0793
20.0793
20.0793
20.0793
20.0793
20.0793
20.0793
20.0793
20.0793
20.0793
20.0793
20.0793
20.0817
20.0817
20.0817
20.0817
20.0841
20.0841
20.0841
20.0841
20.0865
20.0865
20.0865
20.0889
20.0889
20.0913
20.0913
20.0938
20.0938
20.0938
20.0938
20.0962
20.0962
20.0986
20.0986
20.0986
20.1010
20.1010
20.1034
20.1034
20.1034
20.1034
20.1058
20.1058
20.1058
20.1058
20.1082
20.1082
20.1082
20.1082
20.1082
20.1106
20.1106
20.1106
20.1130
20.1130
20.1130
20.1130
20.1130
20.1130
20.1130
20.1130
20.1130
20.1106
20.1106
20.1106
20.1106
20.1082
20.1082
20.1082
20.1082
20.1082
20.1082
20.1082
20.1058
20.1058
20.1058
20.1058
20.1058
20.1058
20.1058
20.1058
20.1058
20.1058
20.1058
20.1034
20.1034
20.1034
20.1034
20.1034
20.1034
20.1034
20.1010
20.1010
20.1010
20.1010
20.1010
20.1010
20.1010
20.0986
20.0986
20.0986
20.0986
20.0986
20.0986
20.0986
20.0986
20.0986
20.0986
20.0986
20.0986
20.0986
20.0986
20.0986
20.1010
20.1010
20.1010
20.0986
20.0986
20.0986
20.0986
20.0986
20.0986
20.0986
20.0986
20.0986
20.0986
20.0986
20.0986
20.0986
20.0986
20.0986
20.0986
20.0986
20.0986
20.0986
20.0986
20.0986
20.0986
20.0962
20.0962
20.0962
20.0962
20.0962
20.0962
20.0962
20.0962
20.0962
20.0962
20.0986
20.0986
20.0986
20.0986
20.0986
20.0986
20.0986
20.0986
20.0986
20.0962
20.0962
20.0962
20.0962
20.0962
20.0986
20.0986
20.0986
20.0986
20.0986
20.0986
20.0986
20.0986
20.1010
20.1010
20.1010
20.1010
20.1010
20.1010
20.1010
20.1010
20.1010
20.1010
20.1010
20.1010
20.1010
20.1010
20.1034
20.1034
20.1034
20.1034
20.1034
20.1034
20.1034
20.1034
20.1034
20.1034
20.1034
20.1034
20.1034
20.1058
20.1058
20.1058
20.1058
20.1058
20.1058
20.1058
20.1082
20.1082
20.1082
20.1082
20.1082
20.1082
20.1058
20.1058
20.1058
20.1058
20.1058
20.1058
20.1082
20.1082
20.1082
20.1082
20.1106
20.1106
20.1106
20.1106
20.1106
20.1106
20.1106
20.1106
20.1106
20.1106
20.1106
20.1082
20.1082
20.1082
20.1082
20.1082
20.1082
20.1082
20.1082
20.1082
20.1082
20.1082
20.1082
20.1082
20.1082
20.1082
20.1082
20.1082
20.1082
20.1106
20.1106
20.1106
20.1106
20.1106
20.1106
20.1106
20.1106
20.1106
20.1106
20.1106
20.1106
20.1106
20.1106
20.1106
20.1130
20.1154
20.1178
20.1202
20.1226
20.1250
20.1274
20.1298
20.1322
20.1346
20.1370
20.1370
20.1394
20.1394
20.1418
20.1442
20.1466
20.1466
20.1490
20.1514
20.1514
20.1538
20.1563
20.1563
20.1563
20.1563
20.1563
20.1563
20.1563
20.1538
20.1538
20.1538
20.1514
20.1514
20.1490
20.1466
20.1466
20.1442
20.1394
20.1370
20.1322
20.1274
20.1226
20.1178
20.1130
20.1106
20.1058
20.1034
20.1010
20.1010
20.0986
20.0986
20.0986
20.0986
20.0986
20.0986
20.0986
20.0986
20.0986
20.0986
20.0986
20.0962
20.0986
20.0986
20.0986
20.0986
20.0986
20.0986
20.0986
20.0986
20.0986
20.0962
20.0938
20.0913
20.0889
20.0865
20.0865
20.0865
20.0913
20.1034
20.1250
20.1563
20.2019
20.2620
20.3341
20.4183
20.5120
20.6106
20.7091
20.8005
20.8822
20.9423
20.9784
20.9856
20.9639
20.9135
20.8413
20.7452
20.6394
20.5313
20.4231
20.3245
20.2380
20.1683
20.1154
20.0745
20.0481
20.0288
20.0192
20.0144
20.0144
20.0168
20.0192
20.0216
20.0240
20.0264
20.0288
20.0313
20.0337
20.0337
20.0337
20.0337
20.0361
20.0361
20.0361
20.0361
20.0361
20.0361
20.0385
20.0385
20.0409
20.0409
20.0409
20.0409
20.0433
20.0433
20.0433
20.0457
20.0457
20.0457
20.0481
20.0481
20.0505
20.0505
20.0505
20.0505
20.0505
20.0505
20.0505
20.0505
20.0529
20.0529
20.0529
20.0529
20.0553
20.0553
20.0553
20.0553
20.0577
20.0577
20.0577
20.0577
20.0577
20.0577
20.0601
20.0601
20.0601
20.0601
20.0625
20.0625
20.0625
20.0649
20.0649
20.0673
20.0673
20.0673
20.0697
20.0697
20.0697
20.0721
20.0721
20.0745
20.0745
20.0769
20.0769
20.0769
20.0793
20.0793
20.0817
20.0817
20.0841
20.0841
20.0841
20.0865
20.0865
20.0865
20.0889
20.0913
20.0913
20.0938
20.0938
20.0962
20.0986
20.0986
20.1010
20.1010
20.1034
20.1034
20.1058
20.1082
20.1106
20.1106
20.1154
20.1178
20.1202
20.1226
20.1250
20.1274
20.1298
20.1346
20.1370
20.1394
20.1418
20.1442
20.1466
20.1490
20.1514
20.1538
20.1538
20.1563
20.1587
20.1611
20.1611
20.1635
20.1635
20.1659
20.1659
20.1683
20.1683
20.1707
20.1707
20.1707
20.1731
20.1731
20.1731
20.1731
20.1731
20.1731
20.1731
20.1707
20.1707
20.1707
20.1683
20.1683
20.1659
20.1659
20.1635
20.1611
20.1587
20.1563
20.1538
20.1514
20.1490
20.1466
20.1442
20.1418
20.1370
20.1346
20.1322
20.1298
20.1250
20.1226
20.1202
20.1178
20.1130
20.1106
20.1082
20.1058
20.1034
20.1010
20.0986
20.0962
20.0938
20.0938
20.0913
20.0913
20.0889
20.0889
20.0865
20.0865
20.0865
20.0865
20.0865
20.0865
20.0841
20.0841
20.0841
20.0841
20.0841
20.0841
20.0841
20.0841
20.0841
20.0841
20.0841
20.0841
20.0841
20.0841
20.0841
20.0817
20.0817
20.0817
20.0817
20.0817
20.0841
20.0841
20.0841
20.0841
20.0841
20.0865
20.0865
20.0865
20.0865
20.0865
20.0865
20.0865
20.0865
20.0865
20.0865
20.0865
20.0889
20.0889
20.0889
20.0889
20.0889
20.0913
20.0913
20.0938
20.0938
20.0938
20.0938
20.0962
20.0962
20.0962
20.0986
20.0986
20.1010
20.1010
20.1010
20.1010
20.1034
20.1034
20.1034
20.1034
20.1034
20.1058
20.1058
20.1058
20.1082
20.1082
20.1082
20.1082
20.1082
20.1082
20.1082
20.1082
20.1106
20.1106
20.1106
20.1106
20.1106
20.1106
20.1106
20.1106
20.1106
20.1106
20.1106
20.1106
20.1106
20.1082
20.1082
20.1082
20.1082
20.1082
20.1082
20.1082
20.1082
20.1082
20.1082
20.1058
20.1058
20.1058
20.1058
20.1058
20.1058
20.1058
20.1034
20.1034
20.1034
20.1034
20.1034
20.1034
20.1034
20.1034
20.1034
20.1034
20.1034
20.1034
20.1034
20.1010
20.1010
20.1010
20.1010
20.1010
20.1010
20.1010
20.0986
20.0986
20.0986
20.0986
20.0986
20.0986
20.0986
20.0986
20.0986
20.0986
20.0986
20.0986
20.1010
20.1010
20.1010
20.1010
20.1010
20.1010
20.1010
20.1010
20.1010
20.1010
20.1010
20.1010
20.1010
20.1010
20.1010
20.1010
20.1010
20.1010
20.1010
20.1010
20.1010
20.1010
20.1010
20.1010
20.1010
20.1010
20.1010
20.1010
20.1034
20.1034
20.1034
20.1034
20.1034
20.1034
20.1034
20.1034
20.1034
20.1034
20.1034
20.1034
20.1034
20.1034
20.1034
20.1034
20.1034
20.1034
20.1034
20.1034
20.1034
20.1034
20.1034
20.1034
20.1034
20.1034
20.1034
20.1034
20.1034
20.1034
20.1010
20.1034
20.1034
20.1034
20.1034
20.1034
20.1034
20.1034
20.1058
20.1058
20.1058
20.1058
20.1082
20.1082
20.1082
20.1082
20.1082
20.1082
20.1082
20.1082
20.1082
20.1082
20.1082
20.1082
20.1082
20.1082
20.1082
20.1082
20.1082
20.1106
20.1106
20.1106
20.1082
20.1082
20.1082
20.1082
20.1082
20.1082
20.1058
20.1058
20.1058
20.1058
20.1082
20.1082
20.1082
20.1082
20.1082
20.1082
20.1082
20.1082
20.1082
20.1082
20.1082
20.1082
20.1082
20.1082
20.1082
20.1082
20.1082
20.1082
20.1082
20.1082
20.1082
20.1082
20.1082
20.1082
20.1082
20.1106
20.1106
20.1106
20.1106
20.1106
20.1106
20.1106
20.1106
20.1106
20.1106
20.1106
20.1106
20.1106
20.1106
20.1106
20.1106
20.1106
20.1106
20.1106
20.1106
20.1130
20.1130
20.1130
20.1154
20.1178
20.1202
20.1226
20.1250
20.1274
20.1298
20.1322
20.1346
20.1346
20.1370
20.1394
20.1394
20.1418
20.1442
20.1466
20.1466
20.1490
20.1514
20.1538
20.1563
20.1563
20.1587
20.1587
20.1587
20.1587
20.1587
20.1563
20.1563
20.1538
20.1514
20.1514
20.1490
20.1490
20.1466
20.1442
20.1418
20.1394
20.1346
20.1322
20.1274
20.1226
20.1178
20.1130
20.1082
20.1058
20.1034
20.1010
20.0986
20.0962
20.0962
20.0962
20.0962
20.0938
20.0938
20.0938
20.0938
20.0938
20.0962
20.0962
20.0962
20.0962
20.0962
20.0962
20.0962
20.0962
20.0962
20.0962
20.0938
20.0938
20.0913
20.0913
20.0889
20.0865
20.0841
20.0865
20.0889
20.1010
20.1178
20.1466
20.1899
20.2452
20.3149
20.3966
20.4904
20.5889
20.6875
20.7837
20.8678
20.9351
20.9784
20.9928
20.9784
20.9327
20.8654
20.7740
20.6683
20.5577
20.4495
20.3462
20.2572
20.1803
20.1226
20.0793
20.0505
20.0288
20.0168
20.0120
20.0120
20.0120
20.0168
20.0192
20.0216
20.0240
20.0264
20.0288
20.0288
20.0288
20.0288
20.0313
20.0313
20.0313
20.0337
20.0337
20.0337
20.0361
20.0361
20.0361
20.0361
20.0385
20.0385
20.0385
20.0385
20.0385
20.0409
20.0409
20.0409
20.0409
20.0409
20.0409
20.0409
20.0409
20.0433
20.0433
20.0433
20.0433
20.0433
20.0433
20.0433
20.0433
20.0457
20.0457
20.0457
20.0481
20.0481
20.0505
20.0505
20.0505
20.0529
20.0529
20.0529
20.0553
20.0553
20.0553
20.0577
20.0577
20.0577
20.0577
20.0601
20.0601
20.0601
20.0601
20.0625
20.0625
20.0625
20.0625
20.0625
20.0649
20.0649
20.0649
20.0673
20.0673
20.0697
20.0697
20.0697
20.0697
20.0721
20.0721
20.0721
20.0745
20.0745
20.0769
20.0769
20.0793
20.0793
20.0817
20.0841
20.0841
20.0865
20.0865
20.0889
20.0913
20.0938
20.0938
20.0962
20.0986
20.1010
20.1034
20.1034
20.1058
20.1082
20.1106
20.1130
20.1154
20.1178
20.1202
20.1226
20.1250
20.1274
20.1298
20.1322
20.1370
20.1394
20.1418
20.1442
20.1466
20.1466
20.1490
20.1514
20.1514
20.1538
20.1538
20.1563
20.1587
20.1587
20.1611
20.1611
20.1635
20.1635
20.1635
20.1635
20.1635
20.1635
20.1635
20.1635
20.1635
20.1635
20.1635
20.1611
20.1611
20.1611
20.1611
20.1587
20.1587
20.1563
20.1563
20.1538
20.1514
20.1490
20.1466
20.1466
20.1418
20.1394
20.1370
20.1346
20.1298
20.1274
20.1250
20.1202
20.1178
20.1130
20.1106
20.1082
20.1058
20.1034
20.1010
20.0986
20.0962
20.0938
20.0913
20.0913
20.0889
20.0889
20.0865
20.0865
20.0841
20.0841
20.0817
20.0817
20.0817
20.0793
20.0793
20.0793
20.0793
20.0793
20.0793
20.0793
20.0793
20.0793
20.0793
20.0793
20.0793
20.0793
20.0793
20.0793
20.0793
20.0793
20.0793
20.0793
20.0769
20.0769
20.0769
20.0769
20.0769
20.0769
20.0769
20.0769
20.0769
20.0769
20.0793
20.0793
20.0793
20.0793
20.0817
20.0817
20.0817
20.0841
20.0841
20.0865
20.0865
20.0865
20.0865
20.0865
20.0865
20.0865
20.0889
20.0889
20.0889
20.0889
20.0913
20.0913
20.0938
20.0938
20.0962
20.0962
20.0962
20.0986
20.0986
20.0986
20.1010
20.1010
20.1010
20.1034
20.1034
20.1058
20.1058
20.1082
20.1082
20.1082
20.1082
20.1082
20.1082
20.1082
20.1082
20.1082
20.1082
20.1082
20.1106
20.1106
20.1106
20.1106
20.1106
20.1106
20.1106
20.1106
20.1082
20.1082
20.1082
20.1082
20.1082
20.1058
20.1058
20.1058
20.1058
20.1058
20.1058
20.1034
20.1034
20.1034
20.1034
20.1034
20.1034
20.1034
20.1034
20.1010
20.1010
20.1010
20.1010
20.1010
20.0986
20.0986
20.0986
20.0986
20.0986
20.0986
20.0986
20.0986
20.0986
20.0986
20.0986
20.0986
20.0986
20.0986
20.0962
20.0962
20.0962
20.0962
20.0962
20.0962
20.0962
20.0962
20.0962
20.0962
20.0962
20.0962
20.0962
20.0962
20.0962
20.0962
20.0962
20.0962
20.0962
20.0962
20.0962
20.0962
20.0962
20.0962
20.0962
20.0962
20.0962
20.0962
20.0962
20.0962
20.0962
20.0962
20.0962
20.0962
20.0962
20.0962
20.0962
20.0962
20.0962
20.0962
20.0986
20.0986
20.0986
20.1010
20.1010
20.1010
20.1010
20.1010
20.1010
20.1010
20.1010
20.1010
20.1010
20.1010
20.1010
20.1010
20.1010
20.1010
20.1010
20.1010
20.1010
20.1010
20.1010
20.1010
20.1010
20.1010
20.1010
20.1010
20.1010
20.1010
20.1010
20.1010
20.1010
20.1010
20.1010
20.1034
20.1034
20.1034
20.1034
20.1034
20.1034
20.1034
20.1034
20.1058
20.1058
20.1058
20.1058
20.1058
20.1058
20.1058
20.1058
20.1058
20.1058
20.1058
20.1082
20.1082
20.1082
20.1082
20.1082
20.1082
20.1058
20.1058
20.1058
20.1058
20.1058
20.1058
20.1082
20.1082
20.1082
20.1082
20.1082
20.1082
20.1082
20.1082
20.1106
20.1106
20.1130
20.1130
20.1154
20.1178
20.1202
20.1226
20.1250
20.1274
20.1298
20.1322
20.1346
20.1370
20.1370
20.1394
20.1418
20.1442
20.1466
20.1490
20.1514
20.1538
20.1538
20.1563
20.1563
20.1587
20.1587
20.1587
20.1563
20.1563
20.1563
20.1538
20.1538
20.1514
20.1514
20.1490
20.1466
20.1442
20.1418
20.1394
20.1346
20.1298
20.1274
20.1202
20.1154
20.1130
20.1082
20.1034
20.1010
20.0986
20.0986
20.0962
20.0962
20.0938
20.0938
20.0938
20.0938
20.0938
20.0913
20.0913
20.0913
20.0913
20.0913
20.0913
20.0913
20.0938
20.0938
20.0938
20.0938
20.0938
20.0938
20.0938
20.0913
20.0913
20.0889
20.0889
20.0889
20.0913
20.0986
20.1106
20.1298
20.1587
20.1995
20.2524
20.3197
20.3966
20.4808
20.5721
20.6659
20.7524
20.8293
20.8918
20.9303
20.9399
20.9183
20.8702
20.8005
20.7091
20.6058
20.4952
20.3894
20.2933
20.2091
20.1394
20.0889
20.0529
20.0288
20.0144
20.0048
20.0024
20.0048
20.0072
20.0120
20.0168
20.0216
20.0264
20.0288
20.0337
20.0337
20.0361
20.0385
20.0385
20.0385
20.0409
20.0409
20.0409
20.0433
20.0433
20.0433
20.0433
20.0457
20.0457
20.0457
20.0457
20.0457
20.0481
20.0481
20.0481
20.0481
20.0481
20.0505
20.0505
20.0505
20.0529
20.0529
20.0553
20.0553
20.0553
20.0553
20.0553
20.0577
20.0577
20.0577
20.0577
20.0577
20.0601
20.0601
20.0601
20.0625
20.0625
20.0625
20.0625
20.0625
20.0625
20.0625
20.0649
20.0649
20.0649
20.0649
20.0673
20.0673
20.0673
20.0697
20.0697
20.0721
20.0721
20.0721
20.0745
20.0745
20.0769
20.0769
20.0769
20.0793
20.0793
20.0793
20.0817
20.0817
20.0817
20.0841
20.0841
20.0865
20.0865
20.0889
20.0889
20.0913
20.0913
20.0938
20.0962
20.0962
20.0986
20.0986
20.1010
20.1034
20.1058
20.1058
20.1082
20.1106
20.1130
20.1154
20.1178
20.1202
20.1226
20.1274
20.1298
20.1322
20.1370
20.1394
20.1418
20.1442
20.1466
20.1490
20.1514
20.1538
20.1563
20.1611
20.1611
20.1635
20.1659
20.1683
20.1707
20.1707
20.1731
20.1755
20.1755
20.1779
20.1779
20.1803
20.1803
20.1803
20.1827
20.1827
20.1827
20.1827
20.1827
20.1827
20.1827
20.1803
20.1803
20.1803
20.1803
20.1779
20.1779
20.1755
20.1731
20.1731
20.1707
20.1683
20.1659
20.1635
20.1611
20.1563
20.1514
20.1490
20.1442
20.1394
20.1370
20.1322
20.1274
20.1226
20.1202
20.1154
20.1130
20.1106
20.1058
20.1058
20.1034
20.1010
20.0986
20.0962
20.0938
20.0913
20.0889
20.0865
20.0865
20.0841
20.0817
20.0817
20.0793
20.0793
20.0793
20.0769
20.0769
20.0769
20.0769
20.0769
20.0769
20.0769
20.0769
20.0769
20.0769
20.0769
20.0769
20.0769
20.0769
20.0769
20.0769
20.0745
20.0745
20.0745
20.0745
20.0745
20.0745
20.0745
20.0769
20.0769
20.0769
20.0793
20.0793
20.0793
20.0793
20.0793
20.0817
20.0817
20.0817
20.0841
20.0841
20.0841
20.0865
20.0865
20.0865
20.0889
20.0889
20.0889
20.0889
20.0913
20.0913
20.0913
20.0938
20.0938
20.0938
20.0938
20.0962
20.0962
20.0986
20.0986
20.1010
20.1010
20.1034
20.1034
20.1058
20.1058
20.1058
20.1082
20.1082
20.1082
20.1106
20.1106
20.1106
20.1106
20.1106
20.1106
20.1106
20.1106
20.1106
20.1106
20.1106
20.1130
20.1130
20.1130
20.1130
20.1130
20.1106
20.1106
20.1106
20.1106
20.1106
20.1106
20.1106
20.1106
20.1082
20.1082
20.1082
20.1058
20.1058
20.1058
20.1058
20.1058
20.1058
20.1058
20.1034
20.1034
20.1034
20.1034
20.1034
20.1034
20.1034
20.1034
20.1034
20.1034
20.1010
20.1010
20.1010
20.1010
20.1010
20.1010
20.1034
20.1034
20.1034
20.1034
20.1034
20.1034
20.1010
20.1010
20.1010
20.1010
20.1010
20.1010
20.1010
20.1010
20.1010
20.1010
20.1010
20.1010
20.1010
20.1010
20.1010
20.1010
20.1010
20.1010
20.1010
20.1010
20.1010
20.1010
20.1010
20.1010
20.1010
20.1010
20.1010
20.1010
20.1010
20.1010
20.1010
20.1010
20.1010
20.1034
20.1034
20.1034
20.1034
20.1034
20.1034
20.1034
20.1034
20.1034
20.1034
20.1034
20.1034
20.1010
20.1010
20.1010
20.1010
20.1010
20.1010
20.1010
20.1010
20.1010
20.1010
20.1010
20.1010
20.1034
20.1034
20.1034
20.1034
20.1058
20.1058
20.1058
20.1058
20.1058
20.1058
20.1034
20.1034
20.1034
20.1034
20.1034
20.1034
20.1034
20.1034
20.1034
20.1058
20.1058
20.1058
20.1058
20.1058
20.1058
20.1058
20.1058
20.1058
20.1058
20.1082
20.1082
20.1058
20.1058
20.1058
20.1058
20.1058
20.1058
20.1058
20.1058
20.1082
20.1082
20.1082
20.1082
20.1082
20.1082
20.1082
20.1082
20.1106
20.1106
20.1106
20.1106
20.1130
20.1154
20.1178
20.1202
20.1226
20.1274
20.1298
20.1322
20.1322
20.1346
20.1370
20.1370
20.1394
20.1418
20.1442
20.1466
20.1490
20.1514
20.1514
20.1538
20.1563
20.1563
20.1587
20.1587
20.1587
20.1587
20.1587
20.1587
20.1563
20.1563
20.1538
20.1538
20.1538
20.1538
20.1538
20.1514
20.1514
20.1490
20.1466
20.1418
20.1370
20.1322
20.1274
20.1226
20.1178
20.1130
20.1106
20.1058
20.1034
20.1010
20.1010
20.0986
20.0986
20.0986
20.0986
20.0986
20.0986
20.0986
20.0986
20.0986
20.0986
20.0986
20.0986
20.0962
20.0962
20.0986
20.0986
20.0986
20.0986
20.0986
20.0986
20.0962
20.0962
20.0938
20.0938
20.0938
20.0938
20.0986
20.1058
20.1226
20.1490
20.1827
20.2308
20.2909
20.3630
20.4447
20.5337
20.6274
20.7188
20.8053
20.8750
20.9255
20.9519
20.9495
20.9183
20.8582
20.7788
20.6827
20.5769
20.4688
20.3654
20.2764
20.1971
20.1370
20.0913
20.0577
20.0385
20.0240
20.0192
20.0168
20.0192
20.0240
20.0264
20.0313
20.0337
20.0385
20.0409
20.0409
20.0433
20.0433
20.0433
20.0457
20.0457
20.0457
20.0457
20.0457
20.0481
20.0481
20.0481
20.0505
20.0505
20.0505
20.0529
20.0529
20.0529
20.0529
20.0529
20.0529
20.0529
20.0553
20.0553
20.0553
20.0553
20.0577
20.0577
20.0577
20.0577
20.0601
20.0601
20.0601
20.0601
20.0601
20.0601
20.0625
20.0625
20.0625
20.0625
20.0649
20.0649
20.0649
20.0673
20.0673
20.0697
20.0697
20.0697
20.0697
20.0721
20.0721
20.0721
20.0721
20.0745
20.0745
20.0745
20.0769
20.0769
20.0769
20.0769
20.0769
20.0793
20.0793
20.0793
20.0817
20.0817
20.0817
20.0841
20.0841
20.0841
20.0841
20.0865
20.0865
20.0865
20.0889
20.0889
20.0913
20.0913
20.0938
20.0938
20.0962
20.0962
20.0986
20.1010
20.1010
20.1034
20.1058
20.1082
20.1082
20.1106
20.1130
20.1154
20.1202
20.1226
20.1250
20.1274
20.1322
20.1346
20.1370
20.1394
20.1442
20.1466
20.1490
20.1514
20.1538
20.1563
20.1611
20.1635
20.1659
20.1683
20.1707
20.1731
20.1755
20.1779
20.1803
20.1803
20.1827
20.1851
20.1851
20.1875
20.1875
20.1875
20.1899
20.1899
20.1899
20.1899
20.1899
20.1923
20.1923
20.1899
20.1899
20.1899
20.1875
20.1875
20.1851
20.1827
20.1803
20.1779
20.1755
20.1731
20.1707
20.1659
20.1635
20.1611
20.1563
20.1538
20.1490
20.1466
20.1442
20.1394
20.1346
20.1322
20.1274
20.1226
20.1202
20.1154
20.1130
20.1082
20.1058
20.1034
20.1010
20.0986
20.0962
20.0938
20.0913
20.0913
20.0889
20.0865
20.0865
20.0841
20.0841
20.0841
20.0817
20.0817
20.0817
20.0817
20.0793
20.0793
20.0793
20.0793
20.0793
20.0769
20.0769
20.0769
20.0769
20.0769
20.0769
20.0769
20.0769
20.0769
20.0769
20.0793
20.0793
20.0793
20.0793
20.0793
20.0793
20.0793
20.0793
20.0793
20.0793
20.0793
20.0817
20.0817
20.0817
20.0817
20.0817
20.0841
20.0841
20.0841
20.0841
20.0841
20.0841
20.0865
20.0865
20.0865
20.0865
20.0889
20.0889
20.0889
20.0889
20.0913
20.0913
20.0913
20.0938
20.0938
20.0938
20.0962
20.0962
20.0986
20.1010
20.1010
20.1034
20.1034
20.1034
20.1058
20.1058
20.1082
20.1082
20.1082
20.1106
20.1106
20.1106
20.1106
20.1106
20.1106
20.1106
20.1106
20.1106
20.1106
20.1106
20.1106
20.1106
20.1106
20.1106
20.1106
20.1106
20.1106
20.1106
20.1082
20.1082
20.1082
20.1082
20.1082
20.1058
20.1058
20.1058
20.1058
20.1034
20.1034
20.1034
20.1034
20.1034
20.1034
20.1034
20.1034
20.1034
20.1034
20.1034
20.1034
20.1034
20.1034
20.1034
20.1034
20.1034
20.1034
20.1034
20.1034
20.1034
20.1010
20.1010
20.1010
20.1010
20.1010
20.1010
20.1010
20.1010
20.1010
20.1010
20.1010
20.1010
20.1010
20.1010
20.1010
20.1010
20.1010
20.1010
20.1010
20.1010
20.1010
20.1010
20.1010
20.1010
20.1010
20.1010
20.1010
20.1010
20.1010
20.1010
20.1010
20.1010
20.1010
20.1010
20.1010
20.1010
20.1010
20.1010
20.1010
20.1010
20.1010
20.1010
20.1010
20.1010
20.1010
20.1010
20.1034
20.1034
20.1034
20.1034
20.1034
20.1034
20.1034
20.1034
20.1034
20.1034
20.1034
20.1034
20.1058
20.1058
20.1058
20.1058
20.1058
20.1058
20.1058
20.1058
20.1058
20.1058
20.1058
20.1058
20.1058
20.1058
20.1058
20.1058
20.1058
20.1058
20.1058
20.1058
20.1058
20.1058
20.1058
20.1058
20.1058
20.1058
20.1058
20.1058
20.1058
20.1058
20.1058
20.1058
20.1082
20.1082
20.1082
20.1082
20.1082
20.1082
20.1082
20.1082
20.1082
20.1082
20.1082
20.1106
20.1106
20.1106
20.1106
20.1106
20.1082
20.1082
20.1082
20.1082
20.1082
20.1082
20.1082
20.1082
20.1082
20.1082
20.1082
20.1082
20.1082
20.1106
20.1106
20.1106
20.1106
20.1106
20.1106
20.1106
20.1106
20.1106
20.1082
20.1082
20.1082
20.1082
20.1106
20.1106
20.1106
20.1106
20.1106
20.1106
20.1106
20.1106
20.1106
20.1106
20.1106
20.1106
20.1106
20.1106
20.1082
20.1082
20.1082
20.1082
20.1082
20.1082
20.1082
20.1106
20.1106
20.1106
20.1106
20.1106
20.1106
20.1130
20.1130
20.1130
20.1130
20.1130
20.1130
20.1130
20.1130
20.1130
20.1130
20.1130
20.1130
20.1130
20.1130
20.1130
20.1130
20.1106
20.1106
20.1106
20.1106
20.1106
20.1082
20.1082
20.1082
20.1106
20.1106
20.1106
20.1106
20.1106
20.1130
20.1130
20.1130
20.1130
20.1130
20.1130
20.1130
20.1130
20.1130
20.1130
20.1130
20.1130
20.1130
20.1154
20.1154
20.1154
20.1154
20.1154
20.1154
20.1154
20.1154
20.1154
20.1154
20.1154
20.1154
20.1154
20.1154
20.1154
20.1130
20.1130
20.1154
20.1154
20.1130
20.1130
20.1130
20.1130
20.1130
20.1130
20.1130
20.1130
20.1130
20.1130
20.1130
20.1130
20.1130
20.1130
20.1130
20.1154
20.1154
20.1178
20.1202
20.1202
20.1226
20.1274
20.1298
20.1322
20.1322
20.1346
20.1370
20.1370
20.1394
20.1418
20.1418
20.1442
20.1466
20.1490
20.1514
20.1538
20.1563
20.1587
20.1611
20.1611
20.1635
20.1635
20.1611
20.1611
20.1611
20.1587
20.1587
20.1563
20.1538
20.1538
20.1514
20.1490
20.1466
20.1442
20.1418
20.1370
20.1346
20.1298
20.1250
20.1202
20.1154
20.1106
20.1082
20.1034
20.1034
20.1010
20.0986
20.0986
20.0986
20.0986
20.0986
20.0986
20.0986
20.0986
20.0986
20.0986
20.0986
20.0986
20.0986
20.0986
20.0986
20.0986
20.0986
20.0986
20.0986
20.0986
20.0962
20.0938
20.0938
20.0913
20.0889
20.0889
20.0938
20.1034
20.1226
20.1538
20.1971
20.2524
20.3245
20.4063
20.4976
20.5962
20.6947
20.7885
20.8726
20.9351
20.9760
20.9880
20.9712
20.9279
20.8582
20.7668
20.6635
20.5553
20.4471
20.3462
20.2572
20.1827
20.1250
20.0817
20.0505
20.0313
20.0192
20.0144
20.0144
20.0168
20.0192
20.0216
20.0240
20.0264
20.0288
20.0313
20.0337
20.0337
20.0337
20.0337
20.0337
20.0361
20.0361
20.0361
20.0361
20.0361
20.0361
20.0385
20.0385
20.0385
20.0385
20.0409
20.0409
20.0409
20.0409
20.0433
20.0433
20.0433
20.0433
20.0433
20.0433
20.0433
20.0457
20.0457
20.0481
20.0481
20.0481
20.0481
20.0505
20.0505
20.0505
20.0505
20.0505
20.0529
20.0529
20.0529
20.0553
20.0553
20.0577
20.0577
20.0577
20.0577
20.0601
20.0601
20.0601
20.0601
20.0601
20.0601
20.0625
20.0625
20.0625
20.0625
20.0649
20.0649
20.0649
20.0673
20.0673
20.0697
20.0697
20.0697
20.0697
20.0721
20.0721
20.0721
20.0721
20.0745
20.0745
20.0769
20.0769
20.0793
20.0793
20.0817
20.0817
20.0841
20.0841
20.0841
20.0865
20.0889
20.0889
20.0913
20.0938
20.0962
20.0986
20.0986
20.1010
20.1034
20.1034
20.1058
20.1058
20.1082
20.1106
20.1130
20.1154
20.1178
20.1202
20.1226
20.1274
20.1298
20.1322
20.1346
20.1370
20.1394
20.1418
20.1442
20.1466
20.1490
20.1514
20.1538
20.1563
20.1563
20.1587
20.1587
20.1611
20.1611
20.1635
20.1635
20.1635
20.1635
20.1659
20.1659
20.1659
20.1659
20.1659
20.1659
20.1659
20.1659
20.1659
20.1659
20.1659
20.1659
20.1635
20.1635
20.1635
20.1611
20.1611
20.1587
20.1587
20.1563
20.1563
20.1538
20.1514
20.1490
20.1466
20.1442
20.1418
20.1370
20.1346
20.1322
20.1274
20.1250
20.1226
20.1178
20.1154
20.1130
20.1106
20.1082
20.1082
20.1058
20.1034
20.1010
20.0986
20.0986
20.0962
20.0938
20.0938
20.0913
20.0913
20.0889
20.0889
20.0889
20.0889
20.0865
20.0865
20.0865
20.0865
20.0865
20.0865
20.0865
20.0865
20.0865
20.0865
20.0865
20.0865
20.0841
20.0841
20.0841
20.0841
20.0841
20.0841
20.0841
20.0841
20.0841
20.0841
20.0841
20.0841
20.0841
20.0841
20.0841
20.0841
20.0865
20.0865
20.0865
20.0865
20.0889
20.0889
20.0889
20.0889
20.0889
20.0889
20.0913
20.0913
20.0913
20.0913
20.0913
20.0938
20.0938
20.0938
20.0962
20.0962
20.0962
20.0962
20.0962
20.0986
20.0986
20.0986
20.0986
20.0986
20.1010
20.1010
20.1034
20.1034
20.1058
20.1058
20.1082
20.1082
20.1106
20.1106
20.1106
20.1130
20.1130
20.1130
20.1130
20.1130
20.1130
20.1130
20.1130
20.1130
20.1106
20.1106
20.1106
20.1106
20.1106
20.1106
20.1106
20.1106
20.1106
20.1106
20.1082
20.1082
20.1082
20.1082
20.1058
20.1058
20.1058
20.1034
20.1034
20.1034
20.1034
20.1010
20.1010
20.1010
20.1010
20.1010
20.1010
20.1010
20.1010
20.1010
20.1010
20.1010
20.1010
20.1010
20.0986
20.0986
20.0986
20.0986
20.0986
20.0986
20.0986
20.0986
20.0986
20.0986
20.0986
20.0986
20.0986
20.0986
20.0986
20.0986
20.0986
20.0962
20.0962
20.0962
20.0962
20.0962
20.0962
20.0962
20.0986
20.0986
20.0986
20.0986
20.1010
20.1010
20.1010
20.0986
20.0986
20.0986
20.0962
20.0962
20.0962
20.0962
20.0962
20.0962
20.0962
20.0962
20.0962
20.0962
20.0962
20.0962
20.0986
20.0986
20.0986
20.0986
20.0986
20.0986
20.0986
20.0986
20.0986
20.0986
20.0986
20.0986
20.0986
20.0986
20.0986
20.0986
20.0986
20.0986
20.0986
20.0986
20.0986
20.0986
20.0986
20.0986
20.0986
20.0986
20.0986
20.0986
20.0986
20.1010
20.1010
20.1010
20.1010
20.1010
20.1010
20.1010
20.1010
20.1010
20.1010
20.1010
20.1010
20.1010
20.1010
20.1010
20.1010
20.1010
20.1010
20.1010
20.1034
20.1034
20.1034
20.1010
20.1010
20.1010
20.1010
20.1010
20.1010
20.1010
20.1010
20.1010
20.1010
20.1010
20.1010
20.1010
20.1010
20.1010
20.1010
20.1010
20.1034
20.1034
20.1034
20.1034
20.1034
20.1058
20.1058
20.1058
20.1058
20.1058
20.1058
20.1058
20.1058
20.1082
20.1058
20.1058
20.1058
20.1058
20.1058
20.1058
20.1058
20.1058
20.1058
20.1058
20.1058
20.1082
20.1082
20.1082
20.1082
20.1082
20.1082
20.1082
20.1082
20.1082
20.1106
20.1106
20.1106
20.1106
20.1106
20.1106
20.1106
20.1106
20.1106
20.1106
20.1106
20.1106
20.1106
20.1082
20.1082
20.1082
20.1106
20.1106
20.1106
20.1106
20.1106
20.1130
20.1130
20.1130
20.1130
20.1130
20.1130
20.1130
20.1130
20.1154
20.1154
20.1178
20.1202
20.1226
20.1250
20.1274
20.1298
20.1322
20.1370
20.1370
20.1394
20.1418
20.1442
20.1466
20.1490
20.1514
20.1538
20.1538
20.1563
20.1587
20.1587
20.1587
20.1611
20.1611
20.1611
20.1587
20.1587
20.1563
20.1563
20.1538
20.1538
20.1538
20.1514
20.1490
20.1466
20.1442
20.1418
20.1370
20.1346
20.1298
20.1250
20.1202
20.1154
20.1106
20.1058
20.1034
20.1010
20.0986
20.0986
20.0962
20.0962
20.0962
20.0962
20.0962
20.0962
20.0962
20.0962
20.0962
20.0962
20.0962
20.0962
20.0962
20.0962
20.0962
20.0962
20.0962
20.0962
20.0962
20.0962
20.0938
20.0913
20.0913
20.0913
20.0938
20.1010
20.1154
20.1370
20.1707
20.2163
20.2716
20.3413
20.4207
20.5072
20.5986
20.6875
20.7716
20.8438
20.8966
20.9255
20.9279
20.9014
20.8486
20.7740
20.6803
20.5769
20.4688
20.3678
20.2740
20.1947
20.1298
20.0841
20.0505
20.0288
20.0144
20.0072
20.0072
20.0096
20.0120
20.0168
20.0216
20.0264
20.0288
20.0337
20.0361
20.0361
20.0385
20.0409
20.0409
20.0433
20.0433
20.0433
20.0457
20.0457
20.0457
20.0457
20.0481
20.0481
20.0481
20.0481
20.0505
20.0505
20.0505
20.0505
20.0529
20.0529
20.0529
20.0553
20.0553
20.0553
20.0577
20.0577
20.0577
20.0577
20.0577
20.0577
20.0601
20.0601
20.0601
20.0601
20.0625
20.0625
20.0625
20.0649
20.0649
20.0673
20.0673
20.0673
20.0673
20.0697
