PPG (1000 Hz),ABP (125 Hz),RESP (125 Hz)
2083.77,114.15,33.31
2030.11,108.15,32.67
2012.23,101.89,33.32
2039.06,95.09,34.15
2110.60,103.28,34.99
2065.89,88.96,34.18
2083.77,96.28,35.62
2083.77,78.58,34.90
2039.06,97.36,37.94
2074.83,76.05,37.07
2065.89,90.17,39.98
2083.77,70.17,37.91
2119.55,83.87,40.55
2065.89,68.90,38.93
2021.17,76.74,42.40
2074.83,61.10,41.59
2065.89,75.18,43.92
2074.83,59.23,42.90
2092.72,73.61,44.87
2083.77,66.45,44.48
2083.77,74.27,46.13
2048.00,66.53,45.54
2056.94,75.96,46.85
2030.11,71.46,47.24
2074.83,75.66,45.36
2092.72,76.91,46.50
2110.60,73.36,46.00
2074.83,71.42,47.89
2119.55,66.42,46.64
2021.17,79.50,48.74
2039.06,66.93,47.32
2030.11,73.04,47.86
2039.06,62.64,47.25
2083.77,73.46,49.33
2030.11,60.30,47.10
2056.94,77.49,49.85
2012.23,53.71,46.68
2039.06,79.14,49.14
2048.00,57.33,48.04
2048.00,74.15,50.32
2074.83,58.14,47.07
2030.11,74.46,50.32
2021.17,58.50,47.77
1985.40,71.47,49.07
2030.11,53.60,48.55
2012.23,70.51,50.41
2074.83,64.99,48.17
1985.40,67.42,48.37
1985.40,62.60,48.67
2021.17,63.40,48.29
1994.34,64.77,47.49
2039.06,60.54,47.12
2048.00,69.25,48.12
2039.06,70.70,47.09
1985.40,94.30,48.38
2003.28,88.20,45.74
2021.17,116.09,50.06
1994.34,111.14,47.34
2039.06,135.08,49.49
1976.45,126.47,47.62
1985.40,140.11,50.10
2012.23,124.81,48.68
2030.11,137.04,51.18
2030.11,117.55,48.53
2003.28,126.73,52.17
2003.28,107.68,49.70
2021.17,115.19,51.04
2056.94,98.59,49.42
2003.28,106.15,53.33
2048.00,93.47,51.30
2039.06,99.74,52.64
1994.34,92.79,52.91
2021.17,93.96,53.60
2039.06,88.15,52.40
1985.40,90.47,53.40
2012.23,85.71,53.83
2003.28,76.78,54.06
2021.17,80.72,54.91
2012.23,73.09,52.77
2021.17,84.85,55.02
2039.06,65.51,53.00
1976.45,82.17,54.76
1985.40,65.75,52.75
2003.28,83.85,55.24
2048.00,67.14,52.02
2048.00,89.61,54.34
2003.28,71.00,52.54
2012.23,87.38,55.69
1976.45,69.77,53.93
2012.23,91.27,55.76
2021.17,68.56,52.74
2030.11,82.01,54.84
1958.57,67.48,53.22
2003.28,84.25,54.27
1985.40,64.67,52.26
1976.45,79.33,53.55
2012.23,70.02,52.35
1985.40,75.99,52.24
2039.06,70.78,52.16
2012.23,74.37,52.26
2065.89,77.36,50.75
2021.17,69.92,49.38
2021.17,73.22,50.52
2048.00,64.83,49.10
2065.89,72.05,51.71
2012.23,63.57,47.31
2003.28,73.45,49.54
2039.06,57.14,47.35
2003.28,75.56,47.85
2012.23,59.26,45.51
2030.11,73.68,46.48
1994.34,56.34,43.63
2021.17,72.53,45.51
2003.28,52.97,42.17
1994.34,73.32,45.15
2030.11,59.20,41.85
1976.45,76.73,42.59
2039.06,70.85,40.10
2030.11,93.89,40.53
1994.34,95.02,38.63
2012.23,112.62,39.73
1958.57,118.93,38.62
2021.17,132.52,37.94
2012.23,130.99,35.78
1994.34,137.27,34.93
1994.34,132.80,34.27
1976.45,128.26,33.24
2003.28,126.29,34.90
2003.28,117.84,32.92
1985.40,119.61,32.90
1985.40,100.00,29.44
1994.34,114.32,30.62
1994.34,94.57,29.34
2021.17,109.84,32.40
2021.17,87.49,26.51
2003.28,105.96,27.99
2012.23,87.78,25.20
1985.40,103.65,25.29
2065.89,79.41,23.92
1985.40,95.81,24.54
2003.28,76.62,22.76
1967.51,87.56,22.86
2048.00,71.97,20.10
2021.17,81.94,22.79
2021.17,67.85,19.86
1994.34,75.95,22.61
2030.11,66.14,20.80
2003.28,76.33,22.23
2039.06,75.57,20.78
2056.94,77.60,20.47
2021.17,80.38,20.83
1985.40,74.31,19.08
1994.34,82.74,22.37
2056.94,76.22,20.49
2039.06,81.53,19.79
2021.17,70.05,17.47
2039.06,80.02,21.84
1976.45,65.91,15.86
2048.00,85.97,20.81
2003.28,67.91,17.77
2021.17,81.77,19.04
2048.00,63.49,14.98
2056.94,81.74,18.53
2039.06,63.38,16.16
2030.11,78.91,19.17
2048.00,64.09,15.11
2030.11,80.81,18.28
2039.06,62.04,16.47
2083.77,75.72,18.38
2056.94,61.91,16.80
2021.17,70.31,17.19
2065.89,56.90,16.79
2101.66,73.02,16.61
2012.23,64.35,16.08
2012.23,67.31,17.25
2048.00,67.88,16.61
1985.40,62.47,16.46
2030.11,68.72,17.64
2065.89,60.62,17.60
2048.00,71.39,18.98
2056.94,57.95,17.42
2039.06,81.46,18.54
2039.06,77.27,17.00
1976.45,103.62,18.07
2056.94,98.10,15.59
2074.83,130.27,19.12
2021.17,119.22,16.10
2030.11,142.75,19.15
2030.11,126.26,16.45
2012.23,147.51,18.91
2056.94,127.40,16.16
2030.11,136.57,18.62
2056.94,112.74,15.99
2021.17,120.10,17.37
2056.94,103.24,15.55
2074.83,113.80,18.21
2074.83,100.01,15.16
2065.89,102.62,16.39
2065.89,97.91,14.29
2074.83,99.32,15.97
2101.66,101.04,15.97
2021.17,92.23,12.69
2092.72,96.35,14.89
2101.66,83.41,13.19
2074.83,91.51,15.32
2056.94,75.29,12.16
2137.43,81.80,14.21
2056.94,67.14,11.41
2128.49,81.00,13.64
2083.77,63.92,11.52
2110.60,80.98,13.20
2092.72,64.72,10.99
2039.06,79.91,14.03
2039.06,66.55,9.79
2101.66,82.46,14.14
2065.89,68.12,10.88
2030.11,82.86,12.18
2056.94,66.24,9.59
2092.72,77.70,10.76
2048.00,73.03,9.95
2119.55,78.15,12.15
2065.89,72.20,10.87
2056.94,73.60,10.35
2083.77,69.10,9.64
2039.06,74.33,9.60
2083.77,74.56,8.20
2146.38,67.22,8.64
2065.89,73.58,8.41
2039.06,65.35,6.11
2074.83,71.79,7.04
2030.11,64.29,5.37
2065.89,71.91,6.45
2048.00,55.89,2.60
2048.00,71.44,6.04
2101.66,54.06,1.63
2065.89,74.07,5.37
2065.89,57.06,3.46
2074.83,72.12,4.21
2083.77,53.40,1.97
2092.72,66.26,3.76
2101.66,51.83,3.30
2101.66,66.04,2.19
2092.72,54.11,0.67
2110.60,66.23,1.79
2083.77,60.42,2.19
2065.89,69.86,2.25
2137.43,65.09,1.45
2083.77,83.36,1.16
2039.06,92.71,1.89
2092.72,98.96,-0.56
2092.72,111.40,0.85
2128.49,117.55,-0.92
2128.49,131.24,0.22
2101.66,125.57,-0.38
2128.49,134.92,-0.45
2137.43,120.62,-1.50
2074.83,127.74,1.07
2083.77,105.66,-1.20
2074.83,114.40,1.45
2137.43,95.83,-2.12
2164.26,111.33,1.14
2128.49,86.11,-2.19
2110.60,104.24,0.17
2110.60,81.53,-1.82
2137.43,101.62,0.25
2092.72,79.17,-2.79
2119.55,95.52,0.14
2039.06,80.58,-3.25
2101.66,91.37,1.71
2083.77,73.91,-2.14
2137.43,80.76,-0.56
2101.66,73.87,-1.35
2065.89,75.42,-1.41
2074.83,68.81,-2.57
2074.83,71.26,-1.73
2101.66,68.02,-1.01
2101.66,67.84,-1.35
2065.89,74.78,-0.21
2074.83,69.91,-2.25
2110.60,80.99,0.84
2074.83,64.21,-2.52
2119.55,83.96,-0.46
2119.55,64.33,-1.22
2092.72,82.74,1.59
2083.77,60.82,-1.47
2056.94,80.59,0.99
2056.94,61.44,-2.14
2110.60,78.44,1.45
2137.43,59.77,-1.68
2074.83,77.61,0.57
2039.06,63.22,-1.55
2101.66,79.30,-0.51
2074.83,59.94,-1.00
2074.83,78.82,-0.14
2083.77,61.05,-1.42
2110.60,69.63,0.96
2065.89,64.29,-2.22
2056.94,66.26,-1.58
2128.49,62.14,-2.39
2164.26,62.91,-3.36
2110.60,69.41,-2.14
2110.60,56.77,-3.53
2110.60,67.73,-2.46
2021.17,59.77,-3.03
2137.43,66.68,-2.21
2101.66,58.02,-4.68
2101.66,69.74,-3.54
2101.66,53.73,-6.26
2128.49,68.10,-3.16
2110.60,53.04,-6.45
2101.66,73.11,-4.23
2137.43,64.94,-6.62
2101.66,91.94,-2.46
2101.66,89.85,-6.72
2146.38,119.96,-4.16
2101.66,110.50,-6.60
2146.38,135.68,-2.80
2110.60,128.62,-5.21
2074.83,142.79,-2.34
2074.83,128.11,-4.42
2092.72,131.56,-3.27
2083.77,118.38,-3.48
2083.77,120.05,-3.80
2083.77,108.52,-2.14
2110.60,108.02,-1.63
2083.77,102.32,-2.61
2092.72,98.73,-2.31
2083.77,100.79,-0.90
2146.38,93.47,-2.27
2039.06,101.88,-0.23
2083.77,82.29,-2.84
2083.77,97.44,-0.62
2083.77,82.93,-2.95
2083.77,91.37,-0.34
2137.43,74.60,-3.84
2074.83,87.64,-1.02
2119.55,68.88,-3.65
2101.66,85.08,-0.23
2101.66,63.95,-4.63
2092.72,80.80,-2.50
2101.66,66.67,-4.70
2074.83,83.69,-2.78
2092.72,69.16,-3.26
2083.77,81.84,-3.76
2074.83,72.14,-4.57
2074.83,81.80,-3.90
2048.00,74.27,-4.88
2074.83,76.63,-3.98
2083.77,73.02,-4.95
2110.60,80.32,-3.88
2128.49,75.10,-3.85
2092.72,72.76,-3.96
2083.77,79.12,-3.18
2083.77,71.79,-5.71
2048.00,83.02,-2.57
2074.83,66.67,-5.27
2065.89,84.40,-3.53
2065.89,64.72,-4.57
2048.00,84.09,-2.99
2074.83,61.50,-6.97
2119.55,81.68,-2.89
2039.06,60.27,-5.17
2119.55,75.46,-2.91
2083.77,61.08,-5.51
2065.89,74.95,-3.36
2119.55,59.94,-6.36
2083.77,73.83,-1.84
2021.17,61.89,-5.02
2101.66,76.27,-3.30
2083.77,56.44,-6.39
2074.83,68.31,-5.17
2065.89,60.34,-5.53
2074.83,68.54,-5.86
2039.06,72.97,-7.68
2092.72,77.80,-5.69
2083.77,80.48,-6.14
2083.77,89.53,-5.86
2128.49,104.02,-5.75
2101.66,110.59,-7.57
2074.83,130.48,-5.17
2056.94,123.48,-8.09
2110.60,141.78,-6.16
2119.55,130.04,-9.04
2119.55,140.35,-5.99
2083.77,119.38,-9.53
2092.72,133.61,-7.30
2119.55,112.25,-10.13
2030.11,121.00,-6.68
2074.83,96.02,-10.45
2092.72,118.51,-7.55
2083.77,95.78,-8.77
2083.77,107.56,-6.82
2039.06,92.78,-8.85
2119.55,102.42,-7.22
2074.83,88.92,-11.17
2146.38,97.54,-8.84
2092.72,86.43,-9.67
2110.60,89.72,-9.03
2137.43,79.43,-10.98
2083.77,83.21,-8.45
2128.49,79.49,-8.22
2110.60,74.37,-9.13
2128.49,74.92,-8.44
2074.83,66.64,-9.78
2065.89,77.99,-8.94
2083.77,68.31,-9.52
2137.43,83.14,-6.24
2101.66,70.89,-9.08
2074.83,86.87,-6.02
2092.72,72.46,-8.49
2074.83,89.15,-5.60
2110.60,73.55,-7.46
2119.55,88.11,-5.02
2074.83,70.75,-7.83
2119.55,83.28,-6.86
2119.55,66.23,-7.48
2101.66,82.27,-4.49
2083.77,65.82,-7.12
2128.49,79.42,-4.17
2092.72,69.89,-5.52
2083.77,77.16,-3.37
2146.38,66.76,-5.59
2101.66,75.99,-4.18
2074.83,64.58,-5.21
2101.66,68.03,-6.17
2101.66,71.29,-3.92
2110.60,68.50,-5.27
2039.06,73.86,-5.65
2083.77,62.64,-5.95
2083.77,72.46,-4.00
2146.38,61.26,-5.25
2065.89,72.06,-4.00
2065.89,59.73,-6.16
2164.26,74.18,-3.10
2110.60,58.61,-6.32
2119.55,74.98,-4.24
2128.49,52.89,-7.38
2101.66,74.72,-4.03
2101.66,61.80,-6.68
2065.89,86.05,-2.69
2092.72,79.10,-4.95
2119.55,107.23,-3.30
2074.83,100.18,-3.88
2110.60,125.24,-2.71
2101.66,129.24,-5.74
2119.55,140.21,-1.37
2092.72,130.78,-3.02
2119.55,137.08,-2.70
2056.94,130.86,-2.19
2083.77,124.82,-1.65
2048.00,120.67,-1.02
2119.55,108.02,-1.71
2039.06,110.96,-0.20
2092.72,101.88,-2.00
2092.72,109.00,-0.33
2074.83,95.80,-0.95
2119.55,105.56,1.06
2110.60,90.79,-1.70
2101.66,108.25,2.42
2083.77,83.17,0.03
2074.83,101.82,3.83
2110.60,74.03,1.31
2048.00,92.14,5.39
2119.55,69.16,3.31
2110.60,83.02,5.01
2092.72,69.84,3.80
2119.55,81.57,5.31
2110.60,63.45,4.32
2101.66,81.00,6.90
2092.72,70.06,5.64
2074.83,76.45,6.05
2074.83,72.11,5.85
2083.77,77.72,6.45
2065.89,73.88,6.55
2101.66,79.51,6.21
2074.83,77.24,6.38
2074.83,71.68,5.93
2110.60,78.96,7.79
2056.94,72.66,5.38
2092.72,77.94,6.39
2074.83,65.04,4.93
2110.60,75.98,7.30
2083.77,61.83,3.53
2074.83,77.77,8.42
2092.72,61.56,5.36
2119.55,77.68,8.26
2074.83,61.63,5.30
2048.00,76.67,8.50
2074.83,57.05,5.55
2030.11,76.92,10.27
2155.32,56.46,6.33
2101.66,73.43,10.11
2101.66,59.00,8.28
2039.06,68.18,10.87
2056.94,59.57,8.63
2110.60,65.11,10.29
2110.60,57.46,10.65
2056.94,67.61,11.87
2083.77,62.38,12.35
2110.60,59.73,12.68
2092.72,58.43,14.92
2056.94,58.14,15.42
2056.94,65.60,15.51
2092.72,58.26,14.42
2012.23,78.32,17.07
2039.06,75.20,16.96
2065.89,96.13,18.70
2074.83,93.77,18.75
2083.77,120.76,21.94
2065.89,115.93,18.71
2119.55,134.65,21.92
2056.94,120.18,21.06
2092.72,139.08,22.44
2083.77,118.42,23.25
2065.89,130.42,25.19
2065.89,109.53,22.10
2039.06,114.01,26.52
2056.94,95.31,23.67
2101.66,103.90,27.01
2056.94,91.82,25.15
2056.94,96.70,28.12
2056.94,88.73,27.34
2039.06,93.05,28.71
2083.77,86.49,29.18
2048.00,88.26,27.71
2110.60,87.11,30.04
2065.89,81.52,30.15
2021.17,84.36,31.81
2039.06,70.73,28.46
2110.60,79.33,31.18
2056.94,63.26,30.91
2119.55,78.31,32.74
2074.83,65.37,30.16
2074.83,78.80,33.73
2065.89,63.23,32.18
2030.11,79.98,36.12
2083.77,61.74,34.87
2039.06,79.37,36.69
2039.06,65.45,34.01
2065.89,81.75,37.87
2030.11,67.65,35.07
2101.66,78.54,37.15
2119.55,63.81,35.54
2074.83,79.90,38.79
2101.66,65.00,37.72
2065.89,75.39,39.25
2056.94,67.08,37.52
2056.94,73.68,38.65
2048.00,109.20,39.87
2092.72,106.45,39.59
2030.11,107.23,41.22
2074.83,98.92,39.56
2074.83,103.12,40.86
2012.23,92.85,39.26
2083.77,100.28,41.51
2048.00,89.51,38.38
2030.11,97.22,41.39
2048.00,78.29,38.13
2012.23,95.43,40.50
2048.00,69.10,36.98
2056.94,80.60,40.04
2039.06,66.57,36.89
2083.77,83.90,38.33
2083.77,64.87,35.36
2048.00,82.14,38.22
2030.11,65.51,36.10
2048.00,83.33,37.60
2039.06,71.78,33.58
2021.17,82.36,35.77
2039.06,77.19,33.06
2074.83,88.19,33.55
2048.00,75.52,31.94
1976.45,80.67,34.48
2039.06,78.64,33.44
2003.28,77.51,32.56
2039.06,79.46,33.82
2003.28,74.20,32.78
2074.83,76.72,34.19
2074.83,69.00,32.31
2003.28,75.76,33.93
2003.28,64.16,32.50
2021.17,78.05,34.70
2003.28,62.05,32.21
2039.06,76.48,35.22
2012.23,60.72,32.19
2021.17,77.32,35.05
2065.89,58.71,31.94
2012.23,81.40,35.06
2039.06,60.96,31.78
2030.11,70.36,32.82
2065.89,59.40,31.42
2074.83,74.36,32.84
1976.45,62.88,30.16
2083.77,72.65,30.87
2021.17,59.84,25.94
2003.28,68.59,28.36
2021.17,64.06,26.78
2021.17,69.00,25.90
1994.34,68.80,23.96
2030.11,75.16,23.86
2003.28,74.52,20.49
2012.23,80.73,19.47
1994.34,96.79,19.58
1949.62,98.57,16.50
1985.40,121.48,17.65
2003.28,119.43,15.09
1985.40,135.31,16.08
1949.62,131.32,13.26
2021.17,140.56,13.54
1958.57,124.03,10.98
1940.68,134.66,13.75
1976.45,111.68,10.18
1985.40,125.14,13.19
2021.17,102.52,10.59
1985.40,114.26,14.03
1994.34,94.68,11.42
2021.17,108.18,13.38
1940.68,93.52,11.31
2021.17,104.40,12.74
2021.17,92.73,11.77
2003.28,99.09,13.89
1994.34,89.98,11.61
1976.45,92.46,13.75
1931.74,81.72,13.20
1994.34,82.86,14.09
2012.23,82.71,12.75
1931.74,72.34,12.75
2012.23,80.04,13.93
1967.51,71.06,13.38
1994.34,86.22,14.08
2003.28,72.79,11.68
1994.34,88.42,14.19
1967.51,72.63,10.19
1949.62,86.17,13.69
2021.17,70.35,9.51
1949.62,88.40,10.28
1994.34,66.79,8.95
2012.23,84.43,11.20
1949.62,71.34,6.54
1967.51,84.95,9.45
1967.51,67.58,5.20
1967.51,86.57,7.26
1985.40,69.85,3.79
2021.17,79.10,5.44
2003.28,69.45,2.34
1976.45,76.16,1.91
2012.23,72.47,1.12
1967.51,73.50,-0.60
1994.34,70.51,-0.78
1994.34,72.79,-0.50
1967.51,74.00,-1.59
1967.51,66.39,-2.43
1976.45,69.82,-1.58
1940.68,61.95,-4.37
1967.51,72.33,-3.64
1940.68,59.37,-3.98
1949.62,72.24,-1.72
1949.62,55.30,-3.48
1931.74,75.81,-2.08
1994.34,55.85,-5.05
1994.34,72.80,-0.25
1949.62,58.05,-3.70
1949.62,75.85,0.73
1958.57,57.22,-1.65
1985.40,82.05,2.05
1958.57,75.24,0.46
1913.85,100.91,4.14
1958.57,96.99,1.32
1931.74,121.45,4.02
1994.34,117.01,4.32
1958.57,133.01,6.44
1958.57,129.86,6.88
1985.40,137.01,8.52
1931.74,131.65,7.06
1949.62,126.52,10.14
1922.79,116.35,9.68
1994.34,113.10,8.45
1958.57,107.00,10.82
1976.45,98.31,8.92
1949.62,101.71,11.16
1949.62,93.41,8.01
1976.45,103.49,10.22
1958.57,90.86,6.97
1958.57,100.57,9.59
1976.45,81.21,5.81
1958.57,97.15,7.21
1940.68,74.30,4.80
1904.91,92.62,7.55
1904.91,65.57,2.32
1940.68,83.07,4.82
1940.68,65.22,1.87
1940.68,73.89,4.55
1958.57,60.74,1.05
1887.02,77.58,1.91
1958.57,65.23,1.01
1994.34,74.53,1.43
1958.57,68.74,-1.19
1913.85,73.21,0.05
1994.34,74.10,0.06
1967.51,72.25,-0.83
1976.45,71.74,-0.53
1958.57,70.78,1.04
1967.51,78.21,-0.26
1967.51,68.11,-2.96
1994.34,78.06,1.15
1940.68,67.04,-1.42
1922.79,78.78,0.43
1976.45,60.15,-1.56
1994.34,77.37,-0.16
2021.17,56.96,-1.75
1931.74,76.14,1.26
1994.34,58.69,-2.53
1967.51,76.15,0.91
1940.68,58.96,-2.46
1967.51,70.98,0.12
2003.28,57.59,-3.10
1967.51,71.49,1.30
1958.57,56.50,-1.83
1994.34,67.78,0.57
1967.51,57.07,-2.20
1958.57,66.96,-0.69
1967.51,56.66,-1.86
1958.57,64.32,-1.23
2012.23,58.47,-1.24
1994.34,59.31,-1.16
2012.23,60.40,-1.56
1976.45,59.32,-1.19
1985.40,63.67,-1.21
1994.34,53.88,-1.34
1949.62,71.68,-0.61
2003.28,68.27,-2.20
1967.51,88.76,0.46
1994.34,86.54,-3.90
1976.45,110.03,-1.49
1958.57,104.68,-4.89
1985.40,131.17,-3.37
2021.17,123.15,-5.47
2003.28,138.98,-4.31
1976.45,118.82,-7.90
2012.23,130.60,-5.31
2012.23,110.06,-9.57
2048.00,118.47,-8.48
2065.89,96.53,-10.59
1985.40,105.33,-10.81
1985.40,91.45,-13.32
1949.62,94.86,-12.24
1994.34,88.99,-14.15
2030.11,89.48,-14.17
2065.89,89.34,-14.00
2048.00,83.89,-15.86
2012.23,84.82,-14.68
2039.06,74.74,-16.66
1985.40,83.14,-15.94
2065.89,74.46,-16.51
2012.23,82.03,-15.18
1994.34,68.95,-17.83
2030.11,73.77,-15.97
2048.00,58.81,-17.85
2030.11,80.14,-16.48
2048.00,59.47,-18.74
2048.00,81.75,-15.95
2039.06,62.34,-18.43
2092.72,81.28,-16.78
2092.72,65.37,-19.57
2056.94,82.84,-15.21
2074.83,68.09,-19.20
2101.66,79.21,-15.53
2092.72,67.12,-17.64
2146.38,79.69,-15.06
2128.49,64.74,-16.72
2119.55,73.37,-18.02
2128.49,67.63,-17.90
2119.55,74.16,-17.09
2155.32,67.05,-19.47
2110.60,68.24,-16.34
2101.66,67.72,-17.02
2137.43,64.23,-16.99
2146.38,68.94,-18.53
2101.66,62.89,-19.31
2110.60,71.40,-18.01
2191.09,61.62,-19.15
2173.21,72.94,-19.06
2155.32,61.29,-22.18
2155.32,70.68,-19.60
2226.86,56.17,-22.98
2173.21,73.00,-20.01
2200.03,56.22,-22.43
2208.98,70.98,-19.92
2253.69,53.80,-23.59
2191.09,71.70,-21.54
2217.92,56.06,-23.76
2271.58,71.28,-20.23
2262.64,59.27,-23.77
2182.15,76.43,-21.60
2262.64,70.24,-23.45
2208.98,91.81,-19.31
2235.81,97.82,-22.19
2235.81,110.50,-21.45
2235.81,117.98,-20.62
2271.58,131.11,-22.17
2235.81,135.86,-19.99
2280.52,133.17,-19.68
2298.41,138.75,-19.89
2253.69,121.91,-20.73
2307.35,124.26,-18.69
2298.41,110.27,-19.70
2298.41,116.46,-17.67
2334.18,100.62,-19.30
2325.24,111.49,-17.01
2334.18,90.48,-17.06
2343.13,106.05,-14.75
2343.13,85.10,-15.90
2325.24,105.43,-14.67
2325.24,82.37,-15.54
2369.96,95.64,-13.61
2325.24,76.60,-16.84
2352.07,91.80,-13.25
2334.18,72.05,-14.84
2369.96,83.82,-14.70
2352.07,66.10,-14.64
2405.73,80.31,-15.02
2387.84,70.63,-16.14
2423.62,76.66,-14.29
2405.73,76.54,-16.93
2396.79,76.34,-16.33
2361.01,78.92,-16.72
2396.79,75.66,-17.11
2414.67,82.60,-16.24
2414.67,71.67,-17.89
2423.62,84.34,-17.13
2441.50,72.34,-19.00
2405.73,82.89,-16.87
2468.33,66.01,-17.98
2468.33,84.33,-15.58
2468.33,65.67,-18.17
2495.16,80.57,-17.51
2513.05,65.12,-18.15
2477.28,77.80,-15.40
2486.22,66.93,-17.43
2450.45,78.42,-14.51
2495.16,60.58,-17.56
2477.28,80.37,-12.91
2495.16,61.99,-15.79
2513.05,74.94,-13.19
2530.93,64.29,-14.90
2548.82,74.75,-11.71
2468.33,64.18,-13.48
2486.22,67.52,-12.30
2504.10,67.06,-12.00
2539.88,66.93,-11.43
2548.82,69.44,-12.62
2530.93,61.86,-12.33
2566.71,69.69,-11.28
2521.99,62.08,-12.46
2566.71,66.74,-10.13
2584.59,56.05,-13.11
2530.93,76.93,-10.67
2584.59,61.16,-14.00
2593.54,85.78,-14.02
2638.25,79.59,-14.86
2620.37,106.61,-12.84
2575.65,101.97,-15.43
2602.48,129.86,-13.69
2602.48,118.41,-17.55
2647.20,141.75,-13.10
2593.54,127.59,-16.33
2682.97,144.67,-14.04
2602.48,122.66,-16.43
2575.65,81.34,-14.40
2593.54,71.96,-16.93
2611.42,78.00,-14.90
2539.88,68.03,-16.47
2656.14,74.37,-14.11
2638.25,75.90,-15.27
2602.48,69.64,-16.24
2638.25,73.56,-13.51
2620.37,62.16,-16.32
2611.42,70.52,-12.97
2620.37,61.20,-13.48
2602.48,75.57,-11.83
2691.91,60.54,-12.14
2656.14,75.68,-12.72
2656.14,55.78,-11.12
2611.42,74.39,-10.10
2638.25,53.40,-11.22
2674.03,71.51,-9.29
2682.97,53.00,-12.55
2682.97,72.19,-7.36
2647.20,60.81,-10.00
2718.74,80.55,-7.70
2682.97,68.29,-9.55
2691.91,94.80,-5.91
2674.03,88.69,-7.77
2647.20,110.26,-7.92
2736.63,114.75,-7.92
2700.86,130.15,-6.63
2665.08,132.20,-6.37
2700.86,133.79,-7.21
2656.14,131.21,-7.40
2674.03,127.71,-6.76
2682.97,126.69,-5.80
2682.97,118.04,-8.19
2700.86,117.74,-6.13
2682.97,102.55,-7.81
2718.74,107.04,-7.00
2682.97,95.45,-7.59
2736.63,107.45,-6.20
2727.69,91.32,-10.11
2727.69,102.11,-7.28
2718.74,86.27,-8.16
2727.69,101.11,-8.38
2691.91,81.79,-10.99
2691.91,93.86,-7.82
2656.14,73.30,-12.12
2709.80,88.51,-8.80
2700.86,63.45,-12.74
2709.80,81.08,-9.16
2745.57,62.85,-12.55
2736.63,74.29,-9.45
2691.91,63.51,-11.75
2727.69,77.25,-10.53
2691.91,68.33,-11.29
2709.80,72.68,-10.58
2763.46,69.67,-8.80
2674.03,73.38,-10.36
2709.80,74.68,-11.51
2736.63,69.64,-9.99
2727.69,78.45,-8.32
2709.80,69.61,-9.33
2745.57,79.32,-7.89
2727.69,61.76,-8.54
2700.86,73.04,-7.22
2718.74,63.32,-7.35
2682.97,76.34,-4.88
2691.91,57.77,-6.72
2727.69,77.49,-1.99
2736.63,58.95,-4.14
2754.52,74.82,-1.04
2754.52,53.73,-3.97
2718.74,74.51,0.15
2727.69,56.92,-0.76
2736.63,70.30,0.64
2727.69,54.87,0.08
2745.57,69.45,1.28
2674.03,57.46,1.46
2718.74,63.19,1.24
2727.69,56.38,0.02
2727.69,61.28,5.07
2718.74,60.70,2.46
2736.63,60.07,3.25
2754.52,60.00,3.47
2763.46,57.68,4.92
2754.52,60.53,7.17
2736.63,56.09,5.75
2718.74,72.78,7.71
2718.74,63.82,8.70
2700.86,84.44,11.04
2718.74,78.75,11.56
2709.80,105.71,15.74
2700.86,101.93,14.42
2709.80,128.96,18.53
2682.97,115.92,19.11
2772.40,139.02,24.22
2736.63,121.81,22.67
2665.08,133.88,27.14
2700.86,116.01,27.13
2709.80,126.13,32.13
2745.57,104.25,31.86
2736.63,112.18,37.92
2754.52,95.74,35.97
2736.63,104.90,40.68
2718.74,92.11,41.41
2718.74,99.41,43.06
2727.69,88.88,44.57
2727.69,88.53,45.85
2700.86,86.93,46.47
2772.40,80.78,46.62
2691.91,85.60,49.43
2718.74,74.41,48.04
2656.14,83.01,50.78
2674.03,68.03,50.03
2727.69,81.27,50.63
2665.08,59.59,47.79
2709.80,75.35,50.04
2727.69,60.10,48.20
2718.74,79.02,50.44
2682.97,63.62,46.32
2727.69,79.11,49.53
2736.63,66.64,45.62
2700.86,84.77,48.49
2718.74,64.98,43.17
2656.14,82.53,45.25
2674.03,67.51,42.85
2700.86,81.43,43.23
2700.86,66.93,40.72
2665.08,76.72,41.55
2691.91,67.09,39.60
2727.69,70.13,38.27
2682.97,66.82,36.98
2665.08,68.96,37.53
2674.03,71.25,38.61
2682.97,67.73,35.89
2709.80,68.21,35.62
2727.69,70.46,34.49
2727.69,72.45,35.26
2718.74,63.11,35.38
2709.80,76.14,38.74
2691.91,58.56,36.51
2665.08,76.29,38.22
2718.74,53.90,36.92
2674.03,72.15,39.24
2709.80,53.82,37.82
2691.91,74.68,38.73
2691.91,56.96,39.01
2691.91,76.64,40.82
2638.25,58.51,38.96
2674.03,73.24,42.42
2682.97,57.13,41.69
2691.91,69.03,42.46
2682.97,71.02,41.62
2682.97,84.22,44.53
2682.97,81.12,43.40
2647.20,101.57,43.16
2709.80,104.60,43.75
2665.08,120.61,44.59
2674.03,132.66,43.36
2656.14,131.33,43.50
2620.37,139.53,44.99
2682.97,128.28,44.13
2629.31,132.21,44.57
2656.14,115.37,43.73
2682.97,126.39,45.26
2611.42,105.68,44.47
2638.25,115.74,46.36
2611.42,96.65,42.69
2656.14,107.12,44.14
2629.31,90.61,42.20
2638.25,109.34,44.72
2647.20,84.36,43.01
2611.42,99.70,43.02
2647.20,84.77,38.79
2665.08,100.44,42.06
2638.25,77.03,40.75
2656.14,89.80,41.32
2557.76,76.80,37.80
2647.20,84.71,37.89
2665.08,73.66,36.02
2638.25,82.24,36.91
2620.37,78.12,36.27
2611.42,78.91,34.52
2647.20,75.20,33.96
2584.59,81.43,33.76
2656.14,80.97,32.67
2638.25,75.48,30.80
2647.20,79.98,31.85
2602.48,72.31,30.83
2647.20,88.29,30.45
2629.31,67.88,27.73
2682.97,82.69,29.79
2575.65,70.80,25.55
2682.97,85.69,29.24
2665.08,65.35,25.37
2656.14,81.08,28.51
2656.14,62.51,23.69
2665.08,82.64,27.06
2674.03,65.26,25.06
2620.37,76.53,27.28
2611.42,62.82,24.18
2682.97,76.80,27.17
2674.03,64.06,25.03
2620.37,75.30,25.72
2638.25,61.48,23.17
2620.37,70.14,24.97
2611.42,65.89,23.98
2584.59,65.27,25.23
2629.31,67.45,25.96
2611.42,64.17,24.41
2656.14,66.39,24.96
2647.20,62.03,23.09
2647.20,72.30,26.04
2629.31,62.86,22.55
2629.31,72.88,24.57
2656.14,54.60,22.20
2620.37,77.92,22.04
2682.97,64.97,19.22
2647.20,89.93,23.86
2656.14,82.91,18.10
2611.42,115.82,19.10
2629.31,105.28,15.78
2638.25,134.93,17.52
2602.48,120.00,12.95
2620.37,140.82,14.92
2656.14,127.43,12.37
2593.54,138.40,12.87
2638.25,120.29,10.46
2620.37,125.91,10.21
2638.25,111.39,6.57
2620.37,113.35,7.89
2593.54,103.43,6.48
2620.37,102.63,3.84
2620.37,102.66,3.53
2620.37,94.58,2.03
2593.54,98.63,2.95
2620.37,91.17,1.50
2611.42,99.95,2.87
2638.25,84.05,-0.12
2647.20,95.31,3.72
2611.42,79.04,0.54
2665.08,89.97,3.65
2629.31,71.96,1.53
2620.37,87.64,2.92
2647.20,67.70,0.42
2674.03,87.42,4.03
2629.31,65.47,0.93
2665.08,88.49,5.90
2656.14,71.38,3.08
2665.08,84.54,6.06
2674.03,73.32,5.07
2629.31,85.77,7.71
2647.20,77.82,5.16
2620.37,79.79,8.52
2656.14,74.45,8.35
2611.42,81.86,10.62
2647.20,76.97,10.90
2638.25,74.66,9.95
2629.31,78.18,10.26
2674.03,69.05,11.41
2629.31,80.47,12.85
2665.08,70.27,11.20
2638.25,79.00,12.99
2620.37,64.29,10.93
2656.14,79.73,14.05
2656.14,62.04,12.28
2700.86,77.91,13.64
2638.25,57.89,10.90
2647.20,80.84,12.98
2548.82,58.49,9.33
2602.48,75.54,13.55
2611.42,57.81,8.27
2629.31,74.19,10.50
2611.42,55.48,6.93
2620.37,72.94,8.58
2620.37,58.90,6.52
2620.37,63.41,7.95
2656.14,55.67,6.12
2665.08,63.15,6.77
2629.31,58.56,5.98
2629.31,58.74,4.73
2656.14,63.78,5.58
2665.08,69.30,6.10
2682.97,77.82,3.65
2656.14,83.57,3.84
2647.20,103.72,3.23
2638.25,108.00,2.72
2700.86,124.94,3.41
2682.97,121.51,0.45
2727.69,139.05,2.01
2700.86,126.83,-1.28
2638.25,137.27,-0.36
2656.14,111.80,-2.16
2682.97,127.89,-1.48
2691.91,105.25,-4.44
2656.14,114.08,-1.76
2674.03,90.67,-6.13
2656.14,106.82,-3.48
2665.08,87.88,-7.54
2691.91,104.13,-5.27
2682.97,86.13,-7.08
2647.20,98.68,-6.52
2682.97,81.97,-7.86
2674.03,92.32,-7.99
2647.20,82.59,-8.70
2682.97,82.93,-8.23
2700.86,75.79,-9.40
2611.42,77.72,-9.75
2691.91,73.72,-9.76
2647.20,67.90,-7.80
2709.80,73.80,-9.61
2656.14,63.10,-9.80
2638.25,73.90,-8.43
2674.03,64.53,-8.59
2638.25,75.63,-7.42
2656.14,62.79,-9.36
2629.31,80.29,-6.64
2611.42,62.43,-8.22
2682.97,80.02,-5.15
2674.03,64.22,-8.37
2647.20,81.99,-4.99
2647.20,62.08,-7.22
2656.14,80.45,-3.78
2665.08,64.21,-5.51
2709.80,75.58,-1.79
2682.97,60.83,-3.89
2665.08,75.04,-0.71
2682.97,62.15,-2.34
2674.03,74.49,-0.69
2656.14,60.85,-3.49
2691.91,69.64,-1.64
2674.03,59.14,-2.34
2691.91,64.18,-1.99
2656.14,62.98,-2.74
2718.74,60.10,-2.57
2736.63,69.49,-2.72
2700.86,57.30,-2.42
2718.74,69.67,-2.60
2674.03,55.95,-6.16
2682.97,70.89,-2.20
2700.86,54.41,-6.82
2727.69,66.66,-3.28
2682.97,53.57,-6.37
2691.91,70.74,-4.97
2674.03,47.76,-7.44
2682.97,72.91,-4.31
2700.86,51.26,-8.38
2709.80,76.24,-6.52
2674.03,59.25,-9.12
2709.80,87.92,-5.68
2700.86,81.13,-8.66
2691.91,108.73,-4.92
2647.20,106.00,-6.03
2674.03,127.59,-6.59
2674.03,124.70,-6.32
2602.48,128.89,-6.09
2691.91,131.41,-6.97
2665.08,125.68,-7.00
2691.91,122.40,-6.05
2638.25,110.24,-7.00
2656.14,111.17,-6.74
2682.97,98.65,-8.33
2700.86,108.61,-6.65
2674.03,88.34,-8.15
2674.03,102.42,-5.30
2709.80,88.79,-7.87
2647.20,100.72,-5.84
2647.20,80.34,-8.86
2772.40,96.40,-5.90
2638.25,78.88,-8.45
2700.86,88.71,-5.20
2718.74,69.04,-7.02
2620.37,86.81,-7.38
2656.14,63.30,-9.58
2709.80,76.72,-6.21
2674.03,62.32,-7.28
2709.80,78.99,-6.83
2691.91,65.48,-8.30
2656.14,74.89,-7.65
2638.25,73.87,-8.16
2656.14,78.31,-7.44
2700.86,74.59,-8.15
2709.80,74.46,-8.05
2638.25,78.53,-8.97
2647.20,74.46,-9.23
2682.97,82.25,-8.39
2647.20,70.52,-9.68
2647.20,83.21,-8.54
2674.03,66.73,-10.27
2647.20,81.16,-10.62
2691.91,66.97,-12.85
2656.14,79.41,-10.40
2647.20,60.20,-13.52
2656.14,79.91,-10.75
2620.37,65.01,-14.30
2691.91,82.25,-11.38
2629.31,61.69,-13.60
2638.25,78.67,-9.84
2700.86,59.96,-14.60
2700.86,73.41,-12.63
2647.20,63.25,-13.97
2620.37,72.72,-12.25
2602.48,61.05,-14.07
2665.08,68.50,-13.39
2620.37,63.66,-14.24
2665.08,70.50,-12.15
2620.37,67.84,-14.26
2647.20,63.60,-12.98
2718.74,63.70,-13.03
2629.31,60.69,-14.80
2647.20,71.81,-11.91
2638.25,65.91,-13.28
2674.03,77.90,-13.71
2647.20,76.63,-13.94
2620.37,95.73,-11.61
2665.08,93.95,-15.23
2674.03,120.14,-12.79
2665.08,113.14,-14.23
2665.08,140.97,-12.56
2620.37,124.01,-15.73
2682.97,144.93,-11.78
2665.08,124.79,-14.64
2691.91,138.09,-9.54
2665.08,113.23,-13.30
2674.03,125.76,-11.31
2665.08,106.56,-12.25
2656.14,115.60,-9.84
2674.03,96.37,-11.80
2682.97,109.36,-8.86
2691.91,96.91,-9.03
2638.25,95.87,-7.21
2691.91,91.73,-6.95
2656.14,91.40,-7.86
2736.63,88.22,-7.13
2691.91,81.55,-6.84
2602.48,83.48,-6.38
2629.31,74.91,-7.54
2665.08,82.71,-5.54
2647.20,70.56,-6.05
2620.37,81.92,-3.80
2674.03,62.94,-3.73
2629.31,82.64,-2.38
2638.25,66.45,-6.07
2674.03,86.91,-3.78
2629.31,64.68,-6.37
2665.08,91.01,-0.93
2665.08,69.51,-4.80
2647.20,87.75,-2.66
2629.31,69.06,-6.43
2620.37,84.33,-3.52
2665.08,72.09,-5.70
2691.91,83.81,-3.88
2629.31,69.61,-6.51
2674.03,79.06,-4.97
2656.14,68.58,-4.81
2674.03,73.87,-5.02
2629.31,71.61,-5.59
2674.03,71.08,-5.18
2647.20,67.20,-4.78
2674.03,70.14,-5.31
2700.86,76.09,-4.22
2611.42,65.49,-6.01
2602.48,72.66,-4.75
2665.08,65.52,-6.58
2611.42,74.63,-4.71
2629.31,61.21,-6.28
2611.42,75.03,-3.47
2665.08,56.01,-5.00
2647.20,72.60,-1.69
2682.97,55.06,-5.19
2647.20,75.56,-1.51
2593.54,56.50,-3.75
2665.08,72.74,-1.71
2620.37,58.14,-5.31
2638.25,72.91,-1.03
2638.25,58.71,-2.83
2602.48,72.53,-1.36
2602.48,68.41,-3.61
2638.25,81.93,0.06
2674.03,81.76,-4.72
2665.08,100.99,-2.80
2665.08,110.09,-4.03
2611.42,122.16,-4.36
2629.31,130.85,-2.51
2620.37,131.05,-3.88
2647.20,139.90,-3.21
2620.37,130.08,-6.05
2629.31,131.57,-2.41
2674.03,114.65,-5.20
2656.14,121.35,-3.39
2665.08,104.52,-7.85
2665.08,114.40,-3.92
2647.20,93.61,-7.94
2674.03,109.77,-3.21
2611.42,88.57,-6.74
2665.08,110.25,-4.64
2647.20,88.74,-6.93
2656.14,101.63,-4.10
2647.20,87.08,-6.90
2629.31,98.34,-3.70
2611.42,79.38,-7.42
2584.59,88.84,-3.11
2629.31,82.23,-5.79
2629.31,79.76,-3.29
2638.25,74.53,-2.07
2629.31,75.64,-3.16
2665.08,71.04,-3.00
2620.37,75.84,-0.38
2620.37,75.64,-3.28
2611.42,70.04,-1.78
2629.31,78.58,-0.26
2593.54,73.02,-2.43
2629.31,86.42,-0.23
2674.03,74.68,-1.71
2682.97,83.90,2.42
2629.31,69.46,-0.65
2620.37,82.41,2.54
2620.37,65.37,0.47
2584.59,84.23,3.66
2629.31,63.25,1.66
2629.31,81.16,2.69
2638.25,62.87,1.42
2593.54,78.96,5.96
2638.25,59.71,0.50
2620.37,78.88,5.54
2629.31,59.26,3.54
2575.65,72.84,5.65
2611.42,58.23,4.39
2620.37,68.18,6.00
2620.37,61.41,4.90
2593.54,65.15,5.04
2611.42,61.29,5.22
2575.65,60.07,6.87
2638.25,60.69,6.45
2620.37,59.09,6.83
2647.20,65.87,7.78
2638.25,57.21,7.63
2566.71,62.24,9.71
2593.54,55.35,7.63
2629.31,67.55,9.96
2629.31,55.48,8.99
2611.42,71.25,8.68
2620.37,51.40,7.86
2620.37,78.99,10.73
2629.31,66.83,7.29
2584.59,93.13,11.53
2620.37,92.27,8.26
2602.48,119.18,10.54
2620.37,112.17,9.13
2584.59,135.42,10.53
2629.31,123.18,9.53
2593.54,139.10,11.58
2629.31,121.14,8.63
2593.54,127.27,11.17
2593.54,115.30,8.69
2575.65,114.12,9.98
2584.59,106.63,9.27
2575.65,94.84,10.03
2629.31,100.27,9.59
2548.82,91.54,8.74
2566.71,97.38,8.96
2548.82,85.52,8.57
2602.48,90.58,11.33
2584.59,77.81,8.99
2620.37,94.43,10.81
2620.37,75.53,7.88
2584.59,90.75,10.65
2557.76,70.61,6.94
2548.82,81.46,8.95
2575.65,62.75,4.06
2593.54,76.83,7.48
2593.54,60.82,3.09
2566.71,74.30,6.04
2593.54,62.59,2.57
2566.71,77.67,3.81
2584.59,62.33,0.07
2548.82,76.14,1.73
2566.71,67.87,-1.94
2548.82,72.66,-0.56
2513.05,71.68,-2.85
2593.54,73.33,-1.44
2611.42,71.85,-4.94
2557.76,73.83,-5.79
2611.42,71.92,-4.77
2548.82,66.73,-6.88
2557.76,75.83,-7.47
2593.54,65.52,-6.76
2557.76,71.60,-6.48
2539.88,61.15,-9.86
2548.82,73.93,-8.52
2566.71,58.88,-9.68
2566.71,75.76,-8.05
2521.99,54.33,-11.24
2575.65,74.82,-9.11
2557.76,54.92,-11.69
2611.42,71.76,-9.64
2611.42,51.13,-13.03
2602.48,71.53,-9.63
2539.88,55.20,-10.82
2575.65,70.63,-9.10
2566.71,56.44,-10.49
2539.88,70.15,-9.81
2575.65,57.47,-11.72
2521.99,64.29,-9.12
2575.65,59.53,-9.88
2539.88,61.36,-8.44
2495.16,58.78,-8.86
2566.71,61.70,-10.40
2521.99,63.90,-9.07
2557.76,66.70,-8.81
2584.59,85.56,-8.21
2539.88,87.94,-7.70
2620.37,107.83,-6.23
2539.88,105.32,-7.31
2504.10,130.37,-5.18
2548.82,121.18,-7.42
2566.71,140.52,-4.95
2530.93,121.14,-8.17
2486.22,137.96,-4.33
2575.65,115.30,-7.20
2530.93,125.40,-4.48
2566.71,101.18,-6.32
2548.82,113.86,-5.61
2539.88,95.87,-7.17
2495.16,108.02,-3.47
2539.88,91.76,-6.39
2513.05,104.38,-3.15
2557.76,87.68,-4.78
2548.82,96.15,-3.27
2539.88,84.16,-4.33
2548.82,86.69,-1.93
2477.28,80.57,-3.04
2530.93,82.77,-2.93
2530.93,80.68,-1.68
2566.71,75.53,-2.34
2539.88,77.02,-1.84
2521.99,70.67,-5.96
2539.88,80.13,-2.26
2504.10,72.51,-3.30
2530.93,85.86,-2.43
2548.82,70.15,-6.11
2521.99,86.38,-5.34
2530.93,68.60,-7.94
2521.99,88.28,-5.39
2486.22,71.89,-9.72
2530.93,85.38,-7.00
2486.22,69.48,-11.07
2513.05,84.70,-10.01
2486.22,67.03,-14.03
2539.88,80.37,-15.54
2468.33,68.96,-18.41
2495.16,79.86,-17.67
2557.76,68.55,-20.55
2495.16,77.01,-19.98
2513.05,73.37,-22.92
2486.22,75.17,-24.36
2513.05,68.43,-25.99
2459.39,74.10,-26.94
2477.28,71.94,-28.82
2504.10,66.20,-29.30
2459.39,71.28,-28.27
2530.93,64.33,-31.70
2468.33,71.01,-29.86
2450.45,58.50,-31.11
2504.10,71.52,-30.00
2477.28,59.19,-32.74
2513.05,74.39,-29.66
2566.71,57.50,-32.15
2477.28,72.21,-28.88
2477.28,54.42,-32.30
2495.16,69.04,-28.06
2477.28,57.21,-30.95
2504.10,72.61,-27.34
2486.22,62.94,-30.08
2521.99,85.63,-26.14
2486.22,76.71,-28.39
2450.45,103.20,-24.75
2477.28,99.88,-25.54
2468.33,119.95,-22.99
2459.39,125.84,-24.26
2459.39,135.36,-22.24
2468.33,134.36,-21.71
2468.33,132.08,-21.81
2432.56,125.41,-21.21
2450.45,122.74,-19.88
2459.39,122.73,-19.78
2432.56,107.70,-20.70
2477.28,114.01,-19.18
2486.22,98.79,-20.29
2477.28,110.35,-18.16
2477.28,92.15,-22.05
2450.45,106.84,-19.30
2414.67,86.58,-21.72
2432.56,99.93,-21.28
2504.10,82.53,-21.64
2468.33,101.06,-18.94
2468.33,78.17,-21.92
2468.33,90.93,-20.86
2459.39,69.64,-23.96
2459.39,86.51,-20.72
2414.67,74.80,-24.15
2521.99,83.12,-23.03
2432.56,68.04,-24.61
2468.33,79.26,-22.98
2486.22,71.90,-26.07
2459.39,83.77,-23.64
2441.50,79.13,-27.03
2477.28,81.89,-26.11
2432.56,83.35,-27.00
2441.50,80.58,-26.92
2450.45,79.30,-26.44
2414.67,74.09,-28.63
2468.33,78.83,-26.69
2459.39,69.41,-28.91
2495.16,82.29,-27.32
2441.50,65.37,-29.92
2459.39,85.40,-27.86
2423.62,64.96,-28.57
2450.45,80.46,-24.87
2441.50,57.75,-27.15
2468.33,82.67,-24.68
2468.33,58.02,-29.30
2477.28,75.69,-25.22
2432.56,61.19,-29.97
2459.39,77.11,-26.79
2450.45,59.68,-26.89
2405.73,71.50,-24.22
2369.96,60.96,-26.39
2405.73,71.23,-25.17
2477.28,62.43,-25.86
2432.56,66.51,-26.14
2432.56,64.83,-26.96
2486.22,65.60,-25.32
2396.79,65.78,-26.80
2405.73,62.03,-27.53
2459.39,63.27,-25.81
2423.62,58.98,-26.14
2441.50,67.96,-26.11
2423.62,63.94,-27.30
2414.67,78.89,-25.36
2459.39,72.55,-26.91
2432.56,94.08,-24.90
2405.73,90.12,-25.98
2477.28,119.18,-24.72
2441.50,114.04,-26.17
2405.73,141.48,-24.18
2450.45,127.48,-26.70
2459.39,143.33,-23.07
2450.45,122.70,-25.60
2441.50,130.36,-23.19
2423.62,111.43,-26.36
2432.56,119.06,-23.96
2405.73,103.21,-26.76
2405.73,110.96,-24.35
2414.67,102.88,-26.12
2396.79,107.52,-25.39
2450.45,102.71,-25.85
2387.84,97.28,-25.97
2405.73,95.85,-25.06
2414.67,93.58,-25.87
2396.79,95.12,-27.32
2369.96,83.41,-26.23
2396.79,87.55,-26.49
2414.67,73.64,-27.66
2396.79,85.64,-26.28
2378.90,68.54,-29.41
2414.67,83.19,-25.11
2396.79,68.04,-28.18
2369.96,85.28,-26.41
2387.84,62.73,-28.73
2387.84,85.82,-26.99
2414.67,66.25,-31.01
2423.62,87.43,-27.59
2441.50,67.39,-30.07
2432.56,82.95,-29.52
2352.07,70.20,-31.61
2441.50,83.00,-29.92
2369.96,65.25,-31.01
2361.01,81.06,-29.67
2414.67,67.53,-30.87
2405.73,70.81,-30.56
2405.73,64.50,-30.07
2378.90,69.40,-30.60
2396.79,68.96,-30.15
2369.96,68.27,-29.85
2396.79,75.94,-29.89
2396.79,59.87,-28.47
2369.96,66.39,-27.86
2343.13,59.99,-29.68
2361.01,73.03,-26.87
2378.90,55.75,-29.14
2361.01,70.73,-26.81
2352.07,58.92,-28.80
2387.84,69.33,-24.24
2423.62,53.11,-25.72
2387.84,68.74,-23.47
2378.90,54.75,-27.39
2405.73,69.34,-23.59
2361.01,51.58,-25.94
2378.90,66.43,-22.61
2343.13,52.32,-24.34
2387.84,66.92,-20.75
2361.01,55.88,-24.95
2414.67,65.81,-21.46
2378.90,59.10,-22.29
2361.01,70.04,-20.56
2316.30,73.88,-23.84
2369.96,84.31,-23.76
2405.73,100.37,-22.95
2334.18,104.23,-23.80
2396.79,121.37,-22.15
2405.73,121.91,-24.95
2325.24,133.81,-23.96
2369.96,122.42,-24.20
2378.90,131.52,-24.27
2316.30,112.59,-26.45
2343.13,122.34,-23.69
2343.13,96.03,-27.05
2405.73,114.66,-24.46
2289.47,94.33,-27.97
2307.35,102.42,-24.67
2307.35,87.48,-28.10
2369.96,101.09,-25.22
2361.01,83.97,-26.34
2343.13,95.73,-24.69
2414.67,78.39,-27.48
2369.96,89.16,-26.54
2343.13,75.62,-28.71
2316.30,80.42,-26.50
2325.24,67.78,-27.62
2307.35,77.35,-27.51
2343.13,69.16,-25.93
2262.64,69.30,-27.49
2298.41,68.32,-26.82
2316.30,68.02,-26.19
2343.13,73.46,-24.19
2307.35,65.12,-25.60
2352.07,73.65,-24.70
2396.79,65.48,-26.63
2316.30,75.10,-23.09
2361.01,66.73,-23.63
2298.41,79.61,-22.31
2343.13,63.01,-23.45
2298.41,82.00,-21.50
2343.13,60.72,-23.33
2334.18,83.03,-19.33
2369.96,61.60,-21.68
2343.13,77.45,-18.46
2378.90,57.71,-21.52
2262.64,73.30,-20.06
2325.24,60.37,-21.11
2307.35,69.48,-19.37
2298.41,56.75,-20.51
2289.47,69.37,-19.46
2361.01,59.67,-19.03
2316.30,66.36,-19.17
2325.24,62.12,-19.53
2271.58,69.07,-20.29
2334.18,66.41,-18.26
2343.13,59.92,-19.69
2262.64,63.06,-18.89
2307.35,55.75,-19.80
2325.24,66.49,-18.34
2262.64,53.44,-18.93
2271.58,67.25,-17.89
2316.30,53.37,-20.96
2280.52,63.78,-20.19
2316.30,51.06,-22.72
2289.47,67.04,-18.77
2298.41,50.01,-21.53
2298.41,71.19,-19.55
2289.47,60.23,-22.66
2298.41,87.57,-19.53
2307.35,80.37,-22.18
2262.64,104.13,-18.75
2307.35,104.09,-22.32
2271.58,125.21,-18.68
2298.41,121.95,-20.52
2289.47,133.76,-18.85
2253.69,126.60,-21.52
2298.41,132.32,-17.83
2262.64,125.22,-19.48
2280.52,117.93,-19.31
2298.41,113.91,-19.01
2253.69,102.35,-17.78
2307.35,103.97,-17.05
2235.81,92.98,-18.87
2271.58,101.94,-16.60
2289.47,87.94,-18.19
2253.69,97.36,-15.08
2253.69,83.21,-16.98
2280.52,96.02,-14.82
2244.75,77.12,-16.21
2253.69,94.68,-12.52
2244.75,71.77,-16.73
2325.24,85.27,-13.96
2226.86,69.24,-15.38
2280.52,81.85,-12.18
2271.58,63.21,-15.56
2253.69,85.64,-12.05
2298.41,69.34,-13.79
2280.52,84.75,-13.77
2235.81,69.19,-12.78
2217.92,82.15,-11.56
2253.69,73.70,-14.69
2244.75,82.40,-12.78
2289.47,76.41,-12.44
2271.58,80.86,-12.27
2244.75,77.24,-11.13
2280.52,72.52,-12.92
2226.86,78.73,-12.87
2253.69,71.24,-15.57
2253.69,85.29,-13.10
2253.69,69.55,-16.24
2244.75,80.50,-12.59
2271.58,64.92,-16.30
2253.69,80.22,-12.55
2343.13,66.38,-15.99
2253.69,74.33,-13.21
2262.64,59.68,-16.72
2289.47,81.33,-12.24
2280.52,56.26,-14.71
2253.69,76.59,-12.71
2226.86,52.97,-15.31
2289.47,79.71,-12.94
2298.41,59.84,-15.44
2280.52,71.44,-13.77
2217.92,58.87,-14.40
2316.30,70.53,-14.45
2316.30,64.93,-15.02
2271.58,69.84,-11.71
2244.75,61.86,-13.22
2325.24,64.64,-13.61
2271.58,65.75,-12.90
2271.58,64.23,-11.01
2280.52,71.91,-12.34
2244.75,68.06,-13.61
2244.75,87.00,-11.84
2271.58,84.16,-11.79
2235.81,112.93,-9.31
2271.58,106.88,-11.53
2325.24,131.58,-9.88
2235.81,123.31,-12.10
2289.47,141.63,-9.98
2343.13,124.88,-11.46
2280.52,139.61,-8.37
2280.52,116.74,-11.62
2280.52,131.36,-8.48
2289.47,106.82,-12.07
2307.35,118.56,-8.05
2253.69,99.40,-10.08
2298.41,107.63,-8.18
2289.47,90.08,-9.99
2361.01,102.20,-9.37
2334.18,93.24,-10.95
2325.24,98.30,-10.49
2289.47,92.90,-11.07
2307.35,88.59,-9.21
2280.52,88.90,-10.34
2343.13,79.65,-10.33
2316.30,85.35,-7.74
2325.24,76.79,-9.82
2316.30,80.95,-8.59
2352.07,69.82,-10.62
2343.13,83.50,-7.74
2405.73,69.59,-9.88
2343.13,82.54,-8.60
2378.90,70.60,-11.29
2396.79,89.99,-7.14
2378.90,70.87,-9.87
2405.73,87.09,-5.68
2352.07,70.25,-8.95
2369.96,86.64,-6.97
2369.96,70.70,-8.42
2361.01,88.05,-6.56
2387.84,68.18,-7.85
2361.01,79.69,-5.32
2423.62,70.91,-7.13
2387.84,79.24,-5.34
2405.73,69.85,-7.19
2441.50,76.30,-5.50
2423.62,69.26,-5.03
2423.62,71.78,-4.63
2450.45,68.14,-5.06
2548.82,66.79,-5.93
2405.73,74.81,-4.27
2405.73,65.08,-3.67
2396.79,76.90,-3.36
2450.45,62.22,-3.21
2378.90,74.42,-2.65
2477.28,59.13,-3.02
2513.05,67.80,-0.36
2504.10,56.04,-2.79
2495.16,74.30,0.15
2521.99,53.61,-2.67
2495.16,70.66,1.14
2530.93,55.55,-3.58
2513.05,68.83,1.65
2548.82,55.15,0.20
2521.99,71.68,2.15
2530.93,59.89,-0.38
2513.05,79.69,0.74
2548.82,69.30,0.32
2513.05,94.53,0.73
2593.54,96.67,2.02
2584.59,117.39,2.20
2513.05,119.77,1.40
2539.88,129.16,1.41
2584.59,131.17,1.90
2593.54,131.64,3.66
2575.65,137.66,3.65
2593.54,125.31,3.80
2566.71,130.05,4.81
2629.31,110.06,3.82
2584.59,118.68,6.90
2638.25,98.49,5.06
2629.31,110.20,9.09
2593.54,92.97,5.34
2629.31,107.14,8.68
2602.48,90.96,7.51
2602.48,106.12,11.06
2656.14,86.45,8.82
2638.25,101.56,12.04
2656.14,79.63,12.42
2620.37,95.92,13.85
2629.31,75.85,11.51
2682.97,89.13,17.34
2665.08,68.29,14.77
2629.31,77.10,16.31
2665.08,69.70,16.87
2674.03,74.91,18.54
2682.97,75.78,20.92
2691.91,76.10,20.52
2656.14,74.51,21.93
2709.80,73.33,21.81
2718.74,83.50,22.65
2682.97,79.01,24.02
2682.97,82.43,25.67
2718.74,69.32,24.48
2674.03,80.91,27.61
2718.74,71.56,24.17
2674.03,80.29,29.09
2718.74,64.53,26.02
2727.69,77.09,28.35
2736.63,60.37,26.62
2736.63,75.60,31.09
2736.63,61.27,27.70
2754.52,75.95,30.29
2772.40,57.65,28.22
2718.74,73.29,32.42
2781.34,57.55,29.77
2727.69,69.77,32.22
2763.46,59.52,31.52
2799.23,66.44,33.02
2763.46,58.47,32.39
2799.23,67.48,33.15
2772.40,62.53,33.85
2781.34,61.03,31.90
2808.17,57.29,33.79
2772.40,55.12,32.82
2808.17,63.40,34.72
2799.23,54.33,34.71
2772.40,64.55,36.48
2781.34,53.93,33.13
2817.12,66.78,35.97
2763.46,51.36,34.77
2808.17,69.16,37.84
2763.46,55.04,35.00
2808.17,78.05,38.17
2817.12,70.05,36.12
2754.52,99.72,38.68
2754.52,99.34,37.79
2790.29,124.67,40.74
2754.52,112.92,39.76
2808.17,133.89,40.05
2799.23,124.96,40.32
2772.40,136.69,40.96
2835.00,119.06,39.44
2826.06,121.87,40.05
2826.06,109.04,40.51
2861.83,112.44,42.13
2817.12,99.93,42.30
2835.00,101.50,41.43
2826.06,93.06,41.36
2835.00,91.47,41.87
2817.12,94.59,44.19
2835.00,83.90,42.85
2870.78,96.21,43.92
2861.83,75.13,42.58
2870.78,91.88,44.05
2852.89,74.04,41.25
2879.72,82.70,42.59
2870.78,64.89,40.85
2835.00,79.60,42.41
2897.61,59.72,40.72
2852.89,72.85,41.57
2861.83,57.36,40.08
2861.83,73.96,42.68
2888.66,56.79,39.32
2870.78,77.83,42.73
2843.95,61.53,38.99
2843.95,79.64,41.57
2826.06,67.11,39.38
2888.66,78.81,40.20
2843.95,71.50,37.48
2861.83,71.15,39.47
2870.78,68.29,37.58
2897.61,72.17,38.50
2843.95,74.36,36.78
2915.49,64.55,37.73
2888.66,72.45,36.99
2870.78,67.85,35.91
2879.72,74.75,35.88
2933.38,56.00,34.13
2861.83,72.76,36.09
2835.00,54.08,33.66
2861.83,69.95,36.60
2888.66,53.61,32.72
2861.83,67.88,34.43
2906.55,53.60,33.22
2843.95,68.61,34.95
2906.55,52.90,30.96
2861.83,69.63,32.83
2897.61,54.57,31.59
2870.78,65.00,31.05
2870.78,55.46,29.33
2888.66,66.00,32.38
2861.83,55.81,30.39
2879.72,63.00,30.81
2852.89,56.60,29.64
2852.89,59.61,29.56
2888.66,59.90,26.48
2879.72,61.85,28.18
2888.66,66.28,26.22
2924.44,75.31,27.19
2960.21,89.03,27.84
2897.61,93.09,24.95
2879.72,115.23,27.27
2852.89,111.05,24.87
2906.55,131.07,25.85
2861.83,124.70,24.40
2915.49,139.02,25.95
2835.00,119.32,23.25
2870.78,133.52,25.85
2915.49,106.08,22.71
2897.61,119.71,24.60
2906.55,99.00,19.29
2861.83,111.66,22.76
2843.95,93.07,18.79
2888.66,105.72,22.17
2817.12,87.17,19.03
2843.95,95.66,19.18
2852.89,83.89,17.05
2861.83,94.17,17.16
2790.29,84.33,16.96
2843.95,88.30,16.90
2808.17,79.36,15.31
2835.00,79.03,14.00
2843.95,77.28,14.75
2843.95,68.80,13.14
2879.72,76.36,12.04
2826.06,62.91,12.39
2808.17,77.50,12.19
2826.06,65.30,11.62
2835.00,80.65,12.93
2852.89,67.51,9.29
2888.66,83.26,11.05
2835.00,66.56,8.52
2808.17,83.79,9.29
2817.12,68.01,6.53
2852.89,87.79,7.36
2826.06,68.09,4.09
2817.12,80.48,5.53
2826.06,67.92,3.66
2799.23,82.18,6.30
2808.17,67.31,3.60
2799.23,81.55,5.39
2835.00,66.58,2.17
2808.17,74.02,2.96
2763.46,67.42,0.42
2843.95,75.91,2.13
2790.29,68.42,1.91
2817.12,69.47,1.15
2861.83,71.14,0.23
2781.34,64.64,0.80
2817.12,74.75,1.90
2817.12,63.20,0.87
2817.12,71.84,1.77
2826.06,54.81,-0.43
2754.52,71.28,0.08
2799.23,56.43,-1.66
2772.40,75.24,-1.36
2808.17,57.03,-1.98
2781.34,70.71,-0.39
2799.23,54.37,-4.07
2790.29,69.38,0.08
2790.29,54.85,-4.44
2781.34,73.08,-0.95
2826.06,65.24,-3.53
2817.12,92.01,-0.26
2817.12,89.42,-3.64
2799.23,109.66,-0.93
2763.46,110.70,-4.30
2772.40,130.48,-4.75
2799.23,128.02,-4.88
2799.23,141.07,-3.02
2790.29,134.27,-5.33
2835.00,130.05,-4.43
2772.40,128.68,-6.50
2790.29,117.07,-5.69
2772.40,115.15,-6.19
2817.12,106.62,-7.85
2826.06,111.04,-6.22
2817.12,94.76,-9.68
2799.23,104.95,-7.98
2781.34,93.18,-9.46
2826.06,98.74,-7.62
2790.29,82.51,-8.85
2772.40,98.26,-5.87
2799.23,84.99,-9.91
2790.29,99.39,-5.38
2727.69,74.24,-9.40
2772.40,88.02,-7.68
2781.34,75.98,-8.44
2781.34,81.07,-7.76
2763.46,66.24,-10.60
2727.69,80.42,-6.99
2709.80,67.95,-9.24
2754.52,77.29,-8.55
2700.86,74.70,-6.89
2736.63,81.13,-6.16
2736.63,77.27,-8.01
2691.91,79.77,-6.09
2781.34,81.23,-7.28
2745.57,78.00,-7.52
2772.40,77.25,-6.74
2745.57,72.11,-5.64
2718.74,82.00,-7.27
2790.29,70.74,-7.38
2763.46,80.20,-5.15
2745.57,63.26,-8.66
2727.69,86.22,-6.81
2709.80,65.53,-9.11
2691.91,83.36,-6.12
2727.69,59.84,-9.04
2781.34,82.44,-6.64
2691.91,58.46,-6.75
2709.80,78.87,-6.23
2745.57,59.82,-8.55
2745.57,76.71,-5.17
2736.63,61.22,-9.73
2665.08,72.16,-4.47
2691.91,62.92,-7.92
2718.74,73.64,-6.40
2718.74,63.77,-4.91
2736.63,67.36,-5.48
2745.57,63.62,-7.01
2691.91,63.56,-5.07
2745.57,65.66,-6.13
2727.69,57.89,-5.81
2665.08,66.89,-5.73
2682.97,58.56,-6.48
2700.86,71.47,-6.06
2718.74,64.66,-7.29
2700.86,90.46,-4.47
2700.86,86.47,-7.70
2691.91,115.94,-3.34
2727.69,104.95,-7.13
2691.91,130.58,-7.21
2665.08,121.91,-8.74
2745.57,143.32,-4.25
2682.97,123.36,-8.66
2745.57,139.32,-6.14
2629.31,117.43,-8.11
2727.69,127.57,-6.99
2691.91,107.62,-9.16
2682.97,113.39,-7.05
2682.97,104.00,-9.89
2638.25,110.41,-8.14
2718.74,99.56,-9.99
2727.69,102.07,-10.15
2709.80,96.75,-9.32
2736.63,95.88,-10.15
2718.74,99.38,-9.71
2700.86,87.53,-10.64
2709.80,91.18,-10.53
2709.80,80.39,-11.20
2718.74,85.38,-9.21
2674.03,71.49,-12.24
2718.74,84.36,-10.88
2647.20,66.69,-12.28
2665.08,85.65,-11.50
2691.91,63.70,-13.56
2718.74,85.75,-9.43
2682.97,68.77,-14.38
2665.08,89.07,-11.13
2656.14,71.14,-14.28
2718.74,89.74,-11.86
2781.34,73.68,-14.99
2682.97,85.94,-10.80
2665.08,75.95,-14.34
2700.86,80.75,-11.34
2682.97,72.83,-12.92
2638.25,75.44,-10.81
2674.03,71.19,-12.99
2665.08,71.76,-11.52
2682.97,70.99,-11.91
2700.86,71.44,-11.72
2700.86,68.93,-9.54
2629.31,63.75,-9.18
2709.80,73.19,-9.29
2674.03,64.77,-9.43
2754.52,66.66,-9.20
2674.03,61.19,-10.64
2727.69,73.61,-6.77
2700.86,57.24,-10.03
2691.91,72.36,-7.31
2691.91,57.36,-10.22
2700.86,69.50,-6.13
2682.97,52.84,-10.89
2709.80,71.70,-7.11
2647.20,54.19,-10.39
2674.03,73.49,-7.06
2647.20,52.47,-9.35
2700.86,66.47,-8.77
2682.97,53.23,-10.71
2682.97,64.48,-6.96
2718.74,57.12,-10.81
2674.03,73.72,-8.69
2682.97,72.29,-9.61
2682.97,80.74,-9.59
2647.20,87.37,-11.20
2647.20,103.28,-10.95
2682.97,115.72,-8.85
2674.03,122.18,-10.13
2665.08,132.34,-9.95
2638.25,125.10,-12.34
2674.03,137.05,-12.16
2665.08,123.63,-11.59
2656.14,126.67,-10.96
2709.80,106.05,-12.87
2700.86,118.75,-10.30
2682.97,95.49,-14.20
2718.74,108.69,-10.65
2691.91,89.20,-13.62
2674.03,103.83,-10.17
2682.97,80.38,-13.41
2745.57,97.82,-10.63
2745.57,81.56,-13.16
2647.20,94.90,-11.18
2674.03,75.25,-13.63
2638.25,86.80,-9.86
2691.91,71.91,-12.22
2665.08,78.48,-9.31
2691.91,69.15,-10.78
2674.03,70.57,-10.83
2674.03,66.21,-9.96
2700.86,70.52,-8.61
2727.69,68.77,-10.67
2727.69,72.03,-10.37
2709.80,73.83,-9.61
2745.57,67.94,-9.55
2674.03,78.30,-7.83
2674.03,67.87,-9.52
2674.03,78.20,-6.73
2674.03,63.57,-8.68
2691.91,84.27,-8.14
2638.25,64.79,-8.18
2674.03,80.93,-6.01
2709.80,58.99,-8.59
2718.74,77.66,-6.70
2682.97,59.64,-7.95
2638.25,73.40,-6.32
2674.03,57.07,-8.70
2691.91,74.30,-7.08
2647.20,55.86,-6.11
2700.86,70.82,-4.70
2656.14,62.27,-7.01
2638.25,65.98,-4.73
2700.86,61.41,-6.38
2674.03,68.06,-6.46
2656.14,58.67,-5.90
2682.97,62.01,-6.51
2700.86,65.81,-6.20
2674.03,59.66,-6.87
2682.97,65.82,-5.35
2727.69,55.99,-7.23
2709.80,66.82,-4.68
2647.20,55.83,-6.94
2709.80,68.61,-5.19
2709.80,51.55,-6.45
2682.97,66.79,-4.06
2674.03,50.42,-6.28
2629.31,72.15,-2.76
2700.86,57.65,-4.87
2709.80,80.93,-1.66
2674.03,77.34,-5.01
2700.86,106.11,-1.76
2656.14,99.71,-4.59
2674.03,124.54,-2.89
2647.20,118.23,-4.73
2718.74,135.33,-0.67
2656.14,126.83,-3.90
2665.08,132.86,-0.83
2665.08,118.36,-3.27
2665.08,116.96,-1.64
2674.03,108.97,-3.16
2665.08,102.40,-2.52
2700.86,105.89,-1.39
2674.03,95.81,-1.63
2665.08,97.63,-3.61
2691.91,88.30,-2.43
2691.91,93.74,-1.87
2718.74,80.30,-3.11
2691.91,92.10,-1.76
2674.03,73.72,-3.34
2665.08,91.01,-1.64
2656.14,74.13,-4.77
2665.08,88.94,-3.05
2691.91,66.12,-5.02
2674.03,80.07,-3.55
2674.03,61.09,-6.55
2709.80,77.11,-3.28
2718.74,59.48,-6.74
2709.80,80.15,-5.20
2700.86,66.75,-7.31
2665.08,81.06,-4.94
2674.03,72.97,-6.88
2665.08,85.42,-6.05
2691.91,75.46,-7.93
2709.80,83.26,-6.69
2665.08,72.81,-8.91
2647.20,76.15,-8.34
2665.08,76.99,-7.43
2665.08,71.93,-9.41
2638.25,79.71,-7.95
2638.25,70.55,-8.81
2656.14,82.64,-8.26
2665.08,64.18,-10.32
2656.14,77.11,-9.15
2665.08,63.27,-11.24
2584.59,78.73,-8.42
2665.08,58.61,-13.54
2665.08,80.20,-10.12
2674.03,57.17,-11.88
2638.25,78.94,-10.38
2674.03,59.81,-14.28
2665.08,74.61,-11.62
2665.08,58.90,-13.98
2656.14,76.55,-10.64
2647.20,56.55,-13.62
2647.20,72.37,-10.48
2691.91,60.65,-13.68
2647.20,70.87,-11.62
2682.97,60.87,-12.93
2682.97,68.91,-11.22
2647.20,64.64,-12.31
2709.80,67.48,-11.98
2638.25,71.82,-9.38
2709.80,79.57,-11.05
2656.14,95.23,-9.36
2638.25,95.25,-9.87
2629.31,116.99,-10.06
2647.20,116.48,-12.18
2691.91,134.99,-7.45
2665.08,123.42,-10.49
2674.03,144.06,-7.56
2629.31,123.10,-8.47
2691.91,137.05,-4.20
2656.14,113.84,-8.20
2674.03,130.88,-5.73
2638.25,105.02,-7.13
2638.25,120.56,-4.93
2638.25,93.51,-5.29
2647.20,111.15,-3.03
2691.91,92.14,-4.70
2638.25,102.21,-0.75
2647.20,89.54,-0.05
2665.08,96.52,0.46
2718.74,84.05,-0.73
2584.59,88.12,1.70
2629.31,79.32,1.21
2602.48,80.30,2.60
2611.42,79.53,5.66
2620.37,72.25,3.57
2593.54,75.78,5.87
2584.59,74.58,4.17
2611.42,80.60,6.96
2629.31,70.28,7.88
2647.20,84.71,9.30
2584.59,71.79,9.05
2584.59,86.40,11.26
2638.25,70.12,10.89
2665.08,88.42,14.41
2593.54,71.48,12.32
2566.71,86.46,17.03
2611.42,68.57,14.85
2629.31,83.77,17.58
2620.37,64.77,16.47
2656.14,80.58,20.17
2602.48,67.18,19.39
2557.76,80.72,22.40
2620.37,66.60,22.14
2593.54,76.64,25.76
2584.59,68.74,25.94
2629.31,73.69,29.28
2584.59,71.29,27.95
2611.42,70.44,29.57
2611.42,71.15,31.56
2602.48,64.47,30.57
2647.20,70.75,34.17
2647.20,63.12,35.32
2593.54,70.46,37.71
2602.48,60.32,37.90
2611.42,69.87,39.68
2530.93,62.59,39.05
2584.59,76.31,42.39
2620.37,56.20,41.29
2593.54,72.05,45.48
2647.20,52.90,42.63
2620.37,73.06,46.94
2548.82,51.41,42.91
2584.59,77.52,47.08
2611.42,63.59,44.26
2575.65,88.44,47.37
2539.88,82.23,45.43
2566.71,110.27,47.13
2575.65,109.96,45.44
2602.48,129.99,46.59
2557.76,130.24,46.84
2638.25,135.26,47.02
2602.48,131.63,46.42
2602.48,131.73,46.73
2602.48,126.18,45.80
2593.54,118.59,45.50
2584.59,118.96,46.51
2602.48,107.56,45.97
2530.93,110.36,47.20
2620.37,99.79,44.72
2602.48,111.00,47.93
2557.76,94.13,44.91
2638.25,106.96,47.31
2611.42,86.56,44.53
2566.71,103.75,47.23
2539.88,82.84,45.59
2530.93,98.60,48.36
2575.65,79.02,45.69
2593.54,89.53,50.08
2584.59,74.74,47.61
2566.71,82.84,48.89
2575.65,67.70,47.68
2593.54,83.42,51.55
2557.76,71.23,50.87
2575.65,82.24,50.57
2539.88,70.13,50.70
2575.65,81.94,52.07
2521.99,77.12,50.54
2548.82,79.07,51.84
2566.71,82.76,52.13
2530.93,77.30,51.37
2620.37,80.57,53.37
2530.93,77.94,53.52
2539.88,84.56,53.71
2593.54,69.92,50.78
2593.54,82.76,53.08
2548.82,71.00,51.33
2575.65,80.37,54.00
2584.59,65.26,51.19
2557.76,82.47,54.91
2513.05,65.12,51.44
2539.88,83.63,54.53
2557.76,60.52,51.68
2513.05,78.62,53.61
2620.37,62.09,51.20
2521.99,78.94,53.00
2602.48,65.00,50.99
2584.59,70.44,53.85
2504.10,59.92,50.38
2513.05,69.55,52.64
2513.05,61.64,51.62
2557.76,63.08,52.77
2575.65,62.50,52.03
2548.82,62.38,49.05
2521.99,66.30,50.94
2566.71,61.27,51.03
2575.65,64.83,51.60
2575.65,55.58,49.50
2504.10,69.95,51.77
2530.93,64.58,50.02
2539.88,81.73,51.90
2539.88,77.86,49.34
2468.33,105.28,50.84
2584.59,103.87,48.44
2521.99,126.18,50.29
2495.16,117.99,46.65
2513.05,142.68,49.70
2539.88,122.89,45.93
2486.22,138.14,47.75
2521.99,116.14,44.48
2513.05,130.86,44.22
2477.28,105.80,41.56
2504.10,113.01,41.34
2513.05,98.00,37.65
2504.10,102.90,37.61
2477.28,94.09,35.49
2513.05,94.02,33.72
2486.22,89.14,31.68
2486.22,91.57,28.84
2521.99,89.94,27.56
2530.93,83.81,25.89
2486.22,89.07,22.71
2504.10,79.33,18.84
2521.99,81.19,16.37
2557.76,70.18,12.75
2477.28,80.36,12.23
2477.28,67.26,8.40
2495.16,78.37,9.26
2504.10,61.80,5.36
2486.22,76.10,3.89
2459.39,61.88,1.37
2530.93,78.41,2.05
2521.99,64.98,-0.53
2468.33,81.49,0.80
2468.33,64.45,-3.30
2495.16,81.68,-2.26
2521.99,67.31,-6.01
2495.16,77.82,-2.34
2495.16,63.74,-4.88
2513.05,73.96,-3.17
2450.45,68.93,-4.30
2441.50,75.01,-2.52
2521.99,66.57,-3.81
2486.22,68.43,-3.68
2441.50,68.67,-2.06
2441.50,67.63,-1.67
2495.16,70.40,-1.10
2468.33,61.62,-0.92
2468.33,69.21,1.05
2450.45,60.21,0.99
2495.16,72.52,3.49
2495.16,60.62,3.20
2477.28,71.26,7.40
2495.16,52.93,6.01
2441.50,71.09,9.70
2459.39,52.65,6.73
2495.16,68.08,10.78
2504.10,49.94,8.99
2477.28,66.24,13.93
2486.22,54.35,11.70
2504.10,67.30,14.94
2414.67,50.97,15.45
2450.45,65.82,17.28
2450.45,57.01,18.72
2468.33,72.83,19.77
2423.62,70.99,19.23
2477.28,83.71,22.23
2477.28,91.55,20.92
2477.28,101.11,23.15
2477.28,113.87,23.38
2423.62,119.57,23.33
2441.50,130.64,23.67
2513.05,125.85,23.33
2423.62,135.91,25.07
2432.56,117.32,22.57
2504.10,129.83,24.66
2423.62,102.44,22.57
2441.50,116.70,25.09
2450.45,94.34,22.72
2396.79,106.71,23.28
2414.67,87.48,20.23
2423.62,100.75,19.84
2396.79,84.70,16.83
2414.67,96.49,18.67
2423.62,79.30,15.51
2450.45,90.62,17.66
2441.50,71.32,14.25
2468.33,81.14,14.82
2405.73,67.95,12.71
2405.73,78.17,15.01
2405.73,68.88,12.39
2405.73,71.31,12.13
2414.67,67.40,11.66
2459.39,65.52,12.91
2450.45,72.66,9.95
2396.79,71.23,10.68
2414.67,77.80,10.94
2432.56,69.54,10.60
2378.90,80.61,10.96
2423.62,67.89,10.38
2414.67,83.59,10.69
2423.62,66.28,10.67
2396.79,82.36,12.12
2414.67,69.22,9.53
2423.62,84.28,12.40
2396.79,66.98,10.35
2405.73,80.38,13.94
2405.73,62.74,8.94
2387.84,81.14,13.70
2423.62,62.56,9.85
2459.39,77.38,11.02
2450.45,62.77,10.34
2387.84,75.60,12.87
2423.62,65.44,9.24
2441.50,69.74,10.03
2369.96,61.70,9.54
2432.56,70.60,8.43
2414.67,66.00,6.32
2396.79,63.43,5.82
2387.84,69.34,5.41
2369.96,62.18,3.72
2361.01,69.57,2.76
2369.96,61.99,2.46
2361.01,71.19,2.59
2369.96,57.30,-1.10
2405.73,73.04,-0.54
2378.90,56.80,-2.37
2387.84,74.42,-0.39
2369.96,59.36,-3.37
2405.73,85.87,-2.33
2414.67,75.92,-4.86
2405.73,104.62,-2.16
2432.56,92.00,-6.55
2441.50,124.51,-2.80
2369.96,117.90,-5.88
2325.24,137.81,-4.75
2378.90,130.88,-6.38
2369.96,141.16,-3.66
2369.96,128.87,-6.22
2396.79,133.22,-3.69
2369.96,119.05,-5.89
2352.07,116.23,-3.85
2361.01,107.85,-0.58
2325.24,106.41,-1.43
2361.01,100.48,0.81
2352.07,94.70,0.03
2325.24,98.33,1.47
2387.84,91.83,0.04
2361.01,99.92,3.06
2361.01,85.17,1.07
2352.07,97.53,5.05
2361.01,77.26,3.03
2343.13,89.14,5.49
2325.24,67.53,2.82
2334.18,84.69,4.56
2352.07,68.65,3.11
2334.18,81.39,4.05
2378.90,64.85,0.69
2316.30,82.30,1.73
2387.84,67.28,-3.05
2378.90,84.26,-0.50
2369.96,71.36,-5.79
2343.13,88.90,-4.61
2387.84,74.38,-9.38
2352.07,85.22,-7.10
2307.35,79.17,-10.01
2343.13,79.91,-8.96
2369.96,79.81,-12.97
2325.24,75.21,-13.35
2352.07,78.45,-14.73
2316.30,72.03,-16.23
2325.24,78.06,-15.17
2352.07,67.67,-16.05
2307.35,78.30,-15.62
2325.24,63.48,-17.45
2316.30,75.73,-15.03
2369.96,61.33,-15.88
2325.24,75.51,-13.60
2307.35,60.54,-16.70
2316.30,78.05,-10.78
2352.07,57.85,-14.07
2352.07,77.59,-11.60
2352.07,58.55,-12.50
2298.41,76.09,-10.77
2316.30,56.70,-10.47
2325.24,68.72,-7.28
2307.35,56.39,-8.42
2307.35,69.42,-5.75
2343.13,58.60,-6.42
2325.24,68.67,-5.96
2307.35,59.40,-5.88
2316.30,67.87,-5.84
2334.18,65.24,-4.78
2405.73,66.09,-6.07
2361.01,74.08,-5.56
2369.96,79.05,-6.38
2325.24,91.78,-3.99
2298.41,102.18,-7.45
2343.13,115.93,-5.42
2307.35,119.56,-8.66
2325.24,138.45,-7.58
2298.41,128.53,-10.35
2325.24,145.27,-7.70
2325.24,125.55,-11.45
2343.13,136.92,-9.39
2316.30,112.96,-14.55
2307.35,126.90,-10.55
2316.30,99.01,-13.88
2280.52,117.18,-12.01
2253.69,92.97,-14.10
2262.64,105.32,-12.77
2289.47,91.90,-15.28
2316.30,102.85,-12.51
2325.24,91.61,-13.60
2334.18,103.96,-13.85
2262.64,89.30,-14.24
2289.47,93.76,-12.28
2316.30,79.42,-12.34
2316.30,82.16,-10.33
2334.18,84.95,-10.17
2262.64,75.61,-9.75
2280.52,81.54,-7.49
2334.18,71.28,-6.54
2307.35,81.72,-6.86
2280.52,69.76,-7.24
2307.35,84.41,-2.95
2334.18,73.74,-4.22
2325.24,86.17,-1.77
2262.64,71.17,-5.32
2334.18,89.00,-0.64
2253.69,67.88,-2.21
2334.18,88.00,2.33
2280.52,67.76,-1.13
2325.24,90.33,2.23
2289.47,67.90,-1.22
2271.58,81.48,1.97
2217.92,68.50,-0.04
2298.41,80.77,2.06
2307.35,71.73,0.40
2307.35,76.68,2.48
2307.35,70.81,2.74
2253.69,74.00,1.32
2253.69,70.30,-0.37
2271.58,70.60,-0.56
2307.35,71.51,-1.18
2289.47,67.00,-1.32
2217.92,71.08,-2.16
2262.64,64.34,-2.32
2226.86,70.09,-1.36
2271.58,61.03,-3.84
2262.64,71.85,-2.64
2244.75,57.71,-6.78
2289.47,71.49,-3.95
2226.86,54.89,-7.72
2271.58,71.63,-4.87
2271.58,51.12,-8.28
2235.81,69.05,-2.60
2253.69,51.70,-10.11
2244.75,68.93,-6.42
2235.81,57.99,-11.49
2280.52,77.89,-8.51
2200.03,72.58,-10.85
2244.75,98.02,-9.50
2280.52,96.60,-11.72
2235.81,120.50,-9.40
2208.98,121.78,-10.81
2289.47,134.17,-8.68
2244.75,133.19,-10.33
2208.98,132.04,-9.33
2226.86,130.70,-8.42
2244.75,118.96,-8.96
2217.92,119.08,-7.89
2226.86,106.12,-9.03
2262.64,110.36,-6.11
2217.92,93.72,-8.44
2271.58,103.09,-4.84
2271.58,89.90,-6.62
2208.98,99.88,-3.55
2191.09,83.19,-6.02
2244.75,98.78,-3.31
2217.92,79.17,-5.34
2235.81,95.91,-2.93
2262.64,70.11,-5.14
2164.26,85.42,-1.71
2217.92,66.70,-4.70
2235.81,75.15,-2.45
2235.81,60.60,-3.88
2191.09,73.12,-2.14
2244.75,65.43,-4.51
2191.09,71.82,-1.37
2191.09,66.17,-3.08
2217.92,71.56,-2.93
2226.86,69.90,-2.30
2226.86,73.52,-2.71
2217.92,74.47,-3.62
2217.92,67.90,-3.36
2191.09,75.68,-1.09
2137.43,71.64,-3.87
2226.86,78.46,-2.27
2226.86,66.09,-4.02
2182.15,77.07,-1.82
2182.15,62.03,-3.75
2208.98,78.86,-1.41
2208.98,61.92,-4.35
2191.09,77.09,-2.75
2235.81,50.91,-5.62
2208.98,73.97,-0.10
2173.21,58.38,-4.66
2164.26,76.90,-1.62
2200.03,59.51,-3.79
2182.15,72.49,-1.62
2173.21,60.56,-4.04
2191.09,72.91,-1.36
2208.98,53.44,-5.16
2200.03,63.62,-1.63
2182.15,60.40,-3.74
2217.92,61.61,-3.03
2208.98,61.65,-4.07
2146.38,58.58,-3.28
2164.26,62.83,-3.39
2217.92,56.37,-2.84
2200.03,61.01,-2.09
2182.15,52.96,-4.18
2164.26,67.08,-2.06
2182.15,54.81,-4.95
2164.26,71.07,-1.44
2173.21,62.00,-4.80
2164.26,81.68,-2.25
2191.09,77.38,-4.57
2173.21,106.87,-1.41
2173.21,102.38,-3.16
2146.38,130.02,0.11
2164.26,120.41,-4.32
2182.15,143.33,-1.11
2164.26,120.23,-3.05
2182.15,132.42,-0.96
2173.21,115.34,-3.01
2164.26,126.20,-1.10
2191.09,102.92,-3.96
2137.43,109.62,-2.77
2164.26,97.70,-3.36
2164.26,99.43,-3.01
2191.09,91.92,-3.42
2164.26,88.57,-3.31
2164.26,88.92,-2.13
2164.26,85.28,-3.52
2155.32,87.92,-3.07
2244.75,76.72,-3.72
2164.26,86.88,-1.38
2173.21,72.66,-4.21
2146.38,85.97,-2.11
2217.92,61.88,-4.19
2110.60,74.45,-0.43
2155.32,64.77,-5.23
2137.43,82.26,-0.27
2110.60,62.49,-4.14
2119.55,81.39,-1.24
2137.43,58.88,-4.11
2200.03,80.62,-0.55
2092.72,67.26,-2.36
2146.38,87.80,0.66
2119.55,70.49,0.45
2119.55,83.38,2.30
2164.26,72.22,2.19
2083.77,81.12,3.47
2137.43,72.93,4.50
2083.77,75.03,4.90
2039.06,73.61,5.69
2092.72,74.20,6.89
2128.49,75.21,6.51
2110.60,68.70,8.03
2110.60,76.49,9.67
2119.55,65.11,8.78
2128.49,77.32,10.05
2110.60,62.11,10.57
2101.66,77.73,13.84
2110.60,61.46,9.22
2101.66,78.20,13.29
2039.06,59.79,12.90
2119.55,74.81,16.33
2101.66,56.34,15.18
2128.49,76.12,16.54
2083.77,56.06,15.35
2065.89,76.29,19.36
2039.06,55.44,16.56
2065.89,73.10,18.09
2065.89,52.80,18.86
2101.66,71.73,21.73
2092.72,58.49,20.48
2056.94,71.16,22.56
2030.11,63.61,22.22
2065.89,82.54,22.24
2083.77,80.91,23.11
2048.00,90.82,23.93
2056.94,107.22,24.74
2048.00,113.75,24.10
2074.83,130.28,26.30
2039.06,128.96,25.26
2074.83,141.81,25.71
2021.17,130.03,26.41
2048.00,136.38,28.51
2056.94,118.93,24.10
2074.83,126.66,27.75
2039.06,105.55,25.95
2101.66,116.73,28.46
1994.34,94.90,26.81
2048.00,107.37,29.08
2021.17,90.69,27.61
2039.06,109.62,29.63
2056.94,86.45,26.43
2030.11,103.08,29.92
2056.94,82.29,26.69
2030.11,95.14,31.30
2039.06,83.83,28.07
2083.77,90.11,31.42
2056.94,78.93,29.05
2065.89,80.46,29.31
2065.89,79.05,30.59
2074.83,78.44,30.69
2173.21,74.95,30.03
2039.06,77.21,33.60
2065.89,80.00,33.93
1994.34,73.21,33.03
2092.72,81.98,35.61
2003.28,73.45,35.45
2101.66,86.05,38.80
2021.17,70.22,34.67
2048.00,87.67,39.87
2083.77,68.36,37.95
2092.72,84.34,41.13
2083.77,65.07,38.26
2083.77,85.10,44.02
2074.83,66.24,40.57
2056.94,81.49,43.98
2056.94,65.75,43.49
2101.66,77.15,47.45
2101.66,67.10,44.17
2101.66,80.95,46.72
2048.00,63.82,45.71
2155.32,79.22,48.58
2092.72,68.78,47.60
2101.66,72.60,48.33
2119.55,67.24,50.17
2101.66,67.52,49.42
2101.66,67.54,50.18
2119.55,63.34,51.37
2092.72,68.75,51.48
2137.43,60.84,50.67
2137.43,73.65,51.53
2119.55,56.37,50.67
2146.38,74.99,51.76
2137.43,54.77,49.06
2110.60,73.56,50.15
2119.55,61.04,49.00
2173.21,74.63,51.13
2110.60,55.29,47.30
2208.98,81.33,49.79
2146.38,74.31,45.13
2164.26,103.65,46.94
2137.43,96.88,44.13
2200.03,123.20,43.35
2173.21,117.27,40.48
2146.38,136.63,40.85
2182.15,129.29,38.50
2137.43,137.09,39.23
2182.15,128.70,38.35
2173.21,127.48,37.63
2208.98,118.65,35.96
2155.32,115.50,37.05
2182.15,111.96,35.27
2208.98,105.50,33.89
2208.98,104.61,34.90
2155.32,98.19,31.57
2155.32,107.37,33.18
2191.09,94.93,33.34
2289.47,105.90,33.22
2262.64,87.92,31.22
2200.03,100.42,33.29
2200.03,84.56,30.06
2262.64,95.91,33.76
2235.81,73.68,27.38
2244.75,87.61,30.73
2262.64,64.67,25.36
2235.81,84.90,29.98
2200.03,68.28,27.53
2235.81,81.08,28.66
2271.58,67.77,25.56
2226.86,85.48,28.12
2217.92,72.01,24.35
2271.58,84.49,26.82
2271.58,78.58,24.43
2253.69,85.77,23.85
2289.47,77.54,23.13
2262.64,76.30,23.14
2334.18,76.23,21.86
2280.52,72.58,22.13
2316.30,77.34,21.65
2280.52,66.35,19.43
2262.64,83.12,20.51
2289.47,67.78,18.50
2316.30,81.54,18.88
2325.24,66.68,16.56
2307.35,79.61,17.46
2289.47,66.15,15.14
2298.41,80.67,16.73
2289.47,60.87,11.88
2334.18,79.23,15.64
2325.24,60.45,10.81
2334.18,79.16,12.62
2307.35,58.18,11.41
2325.24,72.62,12.48
2361.01,55.11,10.84
2361.01,71.01,10.30
2325.24,57.06,8.22
2378.90,64.64,10.07
2343.13,61.24,8.22
2361.01,60.18,8.99
2343.13,57.13,8.26
2369.96,57.83,8.87
2396.79,61.48,8.70
2387.84,57.82,8.22
2361.01,71.63,6.80
2378.90,70.59,8.06
2396.79,90.19,8.98
2432.56,90.13,7.92
2423.62,118.50,7.71
2343.13,111.37,6.58
2387.84,133.03,8.66
2378.90,125.08,5.48
2387.84,139.66,8.29
2369.96,123.55,4.43
2361.01,136.22,6.82
2387.84,110.04,5.60
2396.79,122.46,6.60
2396.79,99.17,3.21
2423.62,106.79,5.18
2414.67,89.79,2.35
2378.90,100.73,4.15
2343.13,87.78,1.81
2405.73,96.88,1.33
2334.18,88.43,0.51
2423.62,88.29,1.17
2405.73,87.10,-1.59
2378.90,85.03,0.01
2414.67,81.24,-2.86
2450.45,74.24,-2.06
2378.90,77.28,-1.81
2450.45,66.86,-1.60
2477.28,74.19,-2.56
2396.79,61.32,-4.69
2423.62,72.90,-2.58
2378.90,61.05,-5.64
2432.56,79.33,-4.91
2441.50,61.67,-7.14
2468.33,81.45,-4.76
2459.39,63.92,-8.72
2432.56,82.08,-3.92
2414.67,66.87,-9.06
2432.56,85.40,-6.31
2450.45,64.57,-8.50
2441.50,82.24,-5.47
2405.73,63.25,-7.13
2432.56,78.90,-7.96
2477.28,63.07,-8.38
2432.56,74.36,-7.79
2423.62,63.27,-8.85
2432.56,72.00,-8.12
2414.67,65.94,-9.42
2396.79,66.46,-9.57
2423.62,66.93,-8.40
2405.73,65.67,-9.67
2441.50,69.91,-10.06
2369.96,58.06,-10.52
2369.96,65.96,-9.64
2414.67,54.68,-10.77
2405.73,67.16,-9.29
2441.50,54.68,-11.17
2414.67,69.00,-8.74
2423.62,50.45,-13.38
2432.56,67.71,-9.58
2423.62,52.10,-12.85
2441.50,67.71,-10.18
2423.62,50.55,-12.75
2396.79,69.21,-10.75
2423.62,53.11,-13.24
2405.73,67.99,-9.62
2432.56,59.72,-14.55
2459.39,79.00,-10.66
2414.67,73.93,-11.44
2441.50,96.29,-8.97
2459.39,95.71,-10.78
2450.45,113.90,-11.95
2396.79,117.75,-11.53
2396.79,128.15,-10.98
2414.67,130.72,-10.50
2396.79,126.87,-10.30
2414.67,129.21,-9.30
2459.39,119.66,-10.31
2396.79,118.20,-7.73
2405.73,103.39,-10.46
2468.33,112.04,-7.99
2432.56,93.91,-10.31
2405.73,101.89,-6.49
2450.45,84.43,-8.72
2405.73,98.86,-7.55
2414.67,82.85,-9.40
2432.56,98.43,-6.97
2432.56,76.31,-8.78
2396.79,89.19,-6.85
2477.28,69.17,-9.43
2423.62,89.57,-6.62
2387.84,68.59,-7.56
2423.62,75.56,-5.61
2423.62,61.50,-7.75
2477.28,72.69,-6.48
2405.73,65.09,-7.93
2441.50,70.17,-7.01
2378.90,67.43,-9.34
2414.67,72.84,-8.01
2414.67,76.49,-7.18
2441.50,73.07,-8.11
2450.45,82.72,-7.26
2396.79,71.49,-9.84
2414.67,82.36,-9.66
2396.79,70.10,-8.94
2378.90,82.65,-8.09
2387.84,68.74,-11.72
2459.39,81.38,-8.60
2414.67,61.14,-11.23
2450.45,81.11,-8.60
2414.67,60.63,-12.56
2378.90,81.28,-8.96
2369.96,58.63,-12.96
2414.67,79.94,-10.68
2396.79,62.95,-13.74
2369.96,74.30,-10.22
2387.84,62.50,-14.33
2369.96,75.14,-11.83
2369.96,60.91,-13.03
2334.18,71.31,-12.34
2316.30,66.61,-16.00
2352.07,67.77,-13.83
2361.01,67.62,-14.89
2369.96,66.63,-14.77
2352.07,61.80,-13.74
2298.41,63.42,-14.61
2307.35,66.01,-14.11
2307.35,59.59,-14.45
2352.07,70.34,-14.62
2307.35,59.34,-14.96
2334.18,69.18,-12.01
2343.13,60.97,-15.48
2334.18,86.43,-12.91
2387.84,78.89,-15.59
2343.13,107.26,-12.34
2280.52,101.44,-15.07
2334.18,125.82,-12.80
2369.96,118.31,-14.36
2352.07,144.16,-12.99
2307.35,126.32,-15.13
2352.07,140.28,-12.47
2307.35,119.80,-15.66
2369.96,132.84,-11.87
2343.13,111.21,-13.05
2316.30,110.55,-12.63
2334.18,101.07,-13.56
2289.47,107.29,-11.97
2325.24,98.37,-13.18
2307.35,95.35,-13.28
2316.30,100.59,-14.16
2343.13,89.84,-12.86
2343.13,93.15,-9.69
2316.30,83.45,-11.78
2298.41,91.24,-9.75
2352.07,75.28,-10.27
2334.18,88.37,-9.55
2316.30,65.88,-9.17
2325.24,86.42,-7.78
2289.47,67.16,-9.98
2343.13,81.32,-5.56
2244.75,64.83,-8.33
2325.24,84.09,-4.68
2334.18,69.10,-7.53
2262.64,83.24,-6.05
2289.47,69.33,-6.48
2253.69,82.99,-3.66
2316.30,70.39,-5.36
2307.35,82.22,-4.90
2325.24,73.82,-7.03
2271.58,78.61,-3.50
2298.41,75.94,-5.14
2280.52,79.87,-4.32
2316.30,73.07,-4.10
2271.58,72.35,-5.51
2271.58,73.90,-4.71
2280.52,73.58,-6.83
2271.58,73.44,-4.60
2262.64,69.01,-7.04
2244.75,78.34,-5.62
2262.64,65.06,-7.36
2289.47,75.93,-6.17
2289.47,60.55,-9.27
2271.58,79.06,-6.68
2200.03,59.16,-9.92
2217.92,77.14,-6.97
2244.75,56.64,-10.11
2226.86,75.44,-9.36
2262.64,56.21,-10.05
2271.58,69.13,-7.84
2226.86,58.40,-12.04
2244.75,74.44,-7.80
2262.64,58.35,-11.48
2235.81,70.54,-9.68
2200.03,60.45,-11.39
2271.58,67.84,-11.37
2217.92,63.02,-11.01
2208.98,74.37,-11.11
2226.86,68.96,-11.25
2217.92,83.76,-12.47
2244.75,96.16,-11.97
2235.81,104.36,-13.43
2235.81,122.45,-11.95
2226.86,124.25,-13.09
2226.86,141.34,-11.00
2217.92,126.40,-12.75
2182.15,139.72,-9.76
2244.75,122.87,-11.56
2262.64,128.98,-7.97
2217.92,106.38,-11.38
2182.15,119.60,-7.39
2182.15,95.45,-10.97
2208.98,111.32,-6.61
2208.98,92.61,-10.55
2200.03,108.96,-5.15
2208.98,89.85,-8.33
2182.15,105.81,-4.26
2182.15,88.12,-7.55
2182.15,97.84,-3.47
2200.03,85.40,-5.10
2146.38,86.19,-3.40
2155.32,76.30,-3.75
2164.26,78.83,-3.05
2182.15,77.40,-3.35
2146.38,72.31,-2.30
2191.09,76.39,-2.29
2182.15,67.97,-2.61
2200.03,80.37,-1.82
2191.09,71.78,-2.98
2173.21,82.75,-1.04
2173.21,75.88,-3.13
2155.32,85.49,-0.64
2217.92,69.47,-5.15
2164.26,86.93,-1.93
2200.03,71.53,-6.27
2217.92,87.13,-2.04
2137.43,68.31,-5.92
2173.21,82.87,-3.66
2200.03,66.74,-6.97
2173.21,80.55,-4.44
2173.21,66.22,-8.30
2200.03,81.75,-6.17
2164.26,65.96,-10.02
2191.09,80.66,-10.63
2164.26,67.29,-13.02
2110.60,75.24,-13.45
2146.38,68.33,-14.54
2164.26,72.38,-15.47
2164.26,68.82,-15.68
2173.21,67.04,-17.46
2208.98,68.56,-18.22
2173.21,66.35,-19.52
2164.26,69.08,-19.88
2119.55,62.12,-22.84
2137.43,73.00,-22.24
2191.09,58.72,-23.30
2164.26,70.70,-22.77
2137.43,57.31,-25.47
2173.21,70.56,-24.06
2155.32,55.17,-27.25
2173.21,71.13,-23.97
2155.32,55.46,-27.88
2208.98,74.43,-25.43
2155.32,60.43,-27.35
2208.98,86.70,-24.81
2217.92,83.04,-26.37
2182.15,108.15,-23.58
2182.15,103.29,-25.44
2137.43,126.92,-22.83
2119.55,124.12,-23.48
2191.09,140.43,-21.12
2155.32,125.53,-21.07
2137.43,129.80,-20.21
2137.43,119.31,-18.60
2137.43,119.73,-18.40
2128.49,111.17,-17.61
2128.49,102.16,-16.80
2173.21,99.54,-14.42
2128.49,96.19,-13.99
2173.21,102.07,-11.81
2137.43,86.42,-12.78
2110.60,100.99,-10.11
2164.26,82.47,-10.38
2128.49,96.24,-8.98
2182.15,75.74,-11.48
2164.26,95.21,-7.56
2208.98,71.17,-10.30
2173.21,81.98,-7.85
2146.38,67.70,-9.01
2173.21,79.10,-7.02
2173.21,63.09,-11.71
2110.60,78.59,-7.13
2110.60,68.39,-7.73
2137.43,78.83,-6.90
2128.49,67.27,-8.22
2083.77,76.21,-6.71
2191.09,70.81,-6.24
2164.26,76.40,-5.58
2146.38,73.96,-7.11
2182.15,74.17,-3.89
2182.15,71.34,-5.08
2173.21,67.47,-4.09
2128.49,72.46,-2.37
2137.43,65.78,-1.70
2128.49,76.47,1.43
2101.66,64.71,-0.45
2155.32,73.53,2.22
2119.55,61.84,2.64
2119.55,71.86,5.74
2128.49,60.09,3.48
2137.43,76.76,9.27
2182.15,55.47,6.83
2155.32,71.05,12.64
2128.49,55.99,11.07
2110.60,71.74,15.21
2119.55,54.65,12.92
2119.55,71.45,18.28
2101.66,53.40,16.30
2119.55,61.62,21.04
2119.55,51.27,20.82
2092.72,65.74,22.99
2110.60,58.36,23.96
2164.26,58.10,25.84
2182.15,58.19,26.67
2056.94,60.85,27.68
2137.43,60.68,29.16
2092.72,58.73,29.17
2191.09,62.62,30.10
2182.15,57.43,30.40
2173.21,68.79,32.86
2074.83,65.64,31.83
2110.60,86.00,35.17
2164.26,84.99,31.32
2110.60,109.94,35.34
2128.49,107.34,31.68
2146.38,129.34,34.54
2164.26,114.35,32.63
2119.55,137.93,34.78
2119.55,118.47,31.90
2110.60,135.01,34.76
2128.49,107.66,31.96
2110.60,117.01,33.63
2110.60,100.99,31.56
2065.89,103.96,33.65
2110.60,85.79,32.27
2092.72,96.41,33.28
2101.66,89.34,30.89
2128.49,89.70,32.28
2074.83,83.87,30.62
2128.49,82.75,31.89
2146.38,85.38,31.91
2128.49,77.55,32.02
2083.77,78.42,33.00
2092.72,70.52,32.04
2146.38,76.70,33.03
2128.49,65.04,31.73
2083.77,75.56,32.63
2137.43,61.71,31.87
2137.43,81.47,32.35
2119.55,61.79,31.50
2155.32,79.82,32.14
2119.55,64.99,29.55
2092.72,82.99,32.69
2137.43,60.00,28.36
2146.38,80.53,30.99
2191.09,66.30,28.72
2155.32,81.04,29.92
2119.55,67.94,26.73
2083.77,79.03,28.73
2119.55,66.66,27.11
2110.60,72.09,28.62
2119.55,65.52,26.27
2074.83,70.09,25.80
2110.60,70.32,24.64
2083.77,68.54,24.34
2146.38,72.91,23.80
2101.66,64.46,22.73
2101.66,74.21,23.18
2119.55,67.43,21.73
2083.77,71.70,24.96
2146.38,62.87,22.54
2119.55,73.91,22.60
2083.77,59.65,20.18
2101.66,75.91,23.24
2092.72,58.78,18.88
2101.66,70.18,23.91
2083.77,59.86,20.15
2092.72,75.16,23.17
2164.26,55.73,21.90
2092.72,74.12,24.33
2119.55,52.11,21.02
2083.77,71.81,23.63
2128.49,55.23,22.20
2074.83,74.70,23.96
2065.89,67.96,21.95
2083.77,81.33,23.07
2074.83,83.68,22.23
2083.77,101.35,22.45
2110.60,110.97,22.21
2065.89,118.93,24.52
2110.60,129.40,25.56
2119.55,130.61,23.65
2119.55,135.01,24.31
2065.89,129.87,22.29
2110.60,129.64,24.41
2137.43,114.94,22.93
2083.77,120.55,25.35
2039.06,100.87,23.14
2083.77,110.65,26.58
2083.77,91.72,24.34
2092.72,104.86,25.79
2092.72,87.31,22.29
2065.89,107.31,26.20
2056.94,84.48,23.36
2128.49,96.25,27.04
2074.83,78.23,23.18
2065.89,93.01,25.60
2119.55,75.16,23.62
2110.60,82.39,26.60
2048.00,67.89,23.54
2092.72,77.18,25.63
2128.49,70.90,24.13
2101.66,77.46,25.36
2110.60,74.78,22.93
2092.72,76.42,23.85
2065.89,79.54,22.84
2065.89,76.06,22.97
2083.77,81.24,22.44
2065.89,76.28,21.60
2101.66,83.35,23.02
2083.77,71.96,19.07
2065.89,86.06,20.15
2119.55,68.86,17.21
2039.06,82.06,18.37
2083.77,67.48,16.68
2083.77,82.20,17.76
2065.89,64.11,14.42
2048.00,79.05,14.74
2048.00,63.41,11.91
2074.83,78.77,13.34
2092.72,58.20,8.68
2039.06,78.46,9.45
2012.23,62.21,7.61
2056.94,70.26,8.72
2101.66,64.19,5.87
2092.72,71.96,5.55
2083.77,62.30,6.25
2048.00,68.23,4.39
2012.23,65.10,5.49
2030.11,64.95,4.95
2048.00,66.23,3.75
2056.94,63.42,2.43
2030.11,68.04,2.84
2039.06,61.28,0.76
2003.28,69.45,3.06
2030.11,59.26,1.45
1985.40,68.97,1.59
2021.17,52.19,-1.10
2039.06,68.97,4.36
2074.83,57.31,-1.84
2030.11,83.01,0.84
2003.28,71.37,-2.30
2003.28,101.00,1.04
2003.28,96.13,-1.01
1994.34,121.03,0.26
1994.34,115.41,-0.57
1994.34,137.88,0.31
2048.00,123.23,-2.54
2039.06,136.66,0.16
2074.83,121.02,-3.41
2039.06,127.41,0.45
2021.17,114.18,-1.26
2056.94,113.48,0.58
2056.94,106.06,0.01
2056.94,104.26,-0.24
2056.94,102.08,0.26
2012.23,101.14,-0.29
2056.94,98.40,0.69
1985.40,92.26,1.15
2012.23,101.42,1.24
2003.28,88.42,0.38
2030.11,95.14,2.96
2065.89,80.29,0.67
2021.17,89.61,4.91
2039.06,70.48,1.86
1994.34,85.59,3.53
2030.11,66.99,0.35
2003.28,84.18,4.06
2030.11,66.54,2.01
2030.11,85.68,3.90
1985.40,69.49,1.15
2021.17,82.29,4.23
1994.34,72.09,1.96
2003.28,85.45,4.31
2030.11,77.09,2.40
2003.28,82.18,3.14
1949.62,74.92,0.50
1976.45,81.08,3.99
1967.51,73.15,-0.34
1985.40,75.63,2.30
2012.23,75.25,0.24
1985.40,75.09,0.04
1976.45,78.21,0.51
1931.74,67.40,-1.99
1994.34,79.07,-2.15
1949.62,62.81,-3.98
1967.51,80.48,-0.18
1976.45,60.64,-4.39
1967.51,79.19,-3.43
1985.40,57.30,-6.17
1931.74,74.52,-3.14
1994.34,56.83,-6.17
1967.51,77.20,-3.48
1940.68,59.82,-7.77
1976.45,71.75,-4.98
1949.62,59.16,-7.70
1967.51,71.17,-5.07
1967.51,59.52,-6.51
1949.62,71.95,-4.80
1994.34,56.88,-8.69
2003.28,65.67,-6.75
1958.57,62.96,-8.70
1967.51,66.61,-7.63
1976.45,65.29,-6.73
1967.51,69.73,-6.42
1949.62,70.53,-6.18
1976.45,77.75,-5.62
1985.40,91.35,-5.16
1913.85,97.56,-5.62
1895.97,113.43,-2.62
1878.08,114.52,-3.83
1940.68,138.57,-2.81
1994.34,126.77,-4.57
1994.34,142.34,-1.13
1967.51,121.43,-4.06
1922.79,141.58,-0.13
1949.62,110.64,-2.81
1913.85,122.75,0.02
1913.85,98.68,-4.25
1985.40,113.40,-1.77
1904.91,98.08,-3.44
1931.74,105.85,-0.53
1976.45,88.08,-3.32
1913.85,102.34,-2.23
1922.79,85.97,-5.06
1958.57,94.51,-4.31
1878.08,81.03,-4.26
1949.62,87.17,-3.74
1913.85,78.39,-4.96
1931.74,77.05,-6.03
1922.79,74.39,-6.70
1931.74,68.20,-7.91
1940.68,74.09,-7.40
1958.57,64.99,-9.55
1940.68,74.52,-6.73
1940.68,61.21,-10.12
1904.91,73.55,-6.46
1985.40,70.48,-9.01
1931.74,82.51,-5.64
1922.79,66.23,-9.42
1913.85,83.23,-4.78
1913.85,65.51,-8.29
1895.97,81.61,-4.42
1949.62,62.54,-7.83
1949.62,76.85,-2.77
1940.68,63.81,-5.20
1913.85,74.97,-2.24
1878.08,60.95,-3.13
1958.57,68.37,-3.44
1922.79,60.63,-3.03
1940.68,68.60,-2.55
1958.57,60.65,-1.41
1931.74,69.38,0.69
1887.02,65.40,-1.60
1913.85,61.54,0.73
1922.79,61.82,0.79
1922.79,59.74,0.72
1895.97,66.46,1.34
1940.68,55.42,-1.30
1878.08,65.48,-0.31
1931.74,54.72,-1.39
1904.91,71.30,0.62
1904.91,50.74,-2.20
1887.02,66.31,-0.85
1895.97,49.07,-4.39
1913.85,68.69,-3.05
1895.97,50.60,-5.00
1878.08,62.48,-3.67
1878.08,49.00,-5.92
1913.85,65.39,-5.26
1869.14,51.13,-6.35
1833.36,64.24,-5.98
1913.85,60.20,-9.78
1869.14,80.24,-6.50
1895.97,76.41,-9.77
1895.97,99.46,-8.84
1958.57,100.59,-10.18
1887.02,119.31,-9.16
1922.79,118.67,-13.13
1904.91,126.71,-11.60
1904.91,131.80,-11.09
1895.97,119.32,-12.38
1833.36,122.60,-11.68
1940.68,108.06,-12.90
1922.79,111.96,-10.90
1895.97,97.12,-13.37
1878.08,104.38,-10.42
1895.97,84.42,-15.65
1869.14,98.00,-13.06
1878.08,78.92,-16.03
1922.79,92.42,-12.26
1869.14,75.13,-15.48
1869.14,88.88,-13.22
1860.19,66.19,-16.55
1833.36,82.92,-12.58
1842.31,65.07,-15.38
1895.97,79.47,-12.54
1895.97,64.34,-15.22
1824.42,76.98,-12.81
1842.31,64.64,-13.36
1869.14,73.88,-11.05
1842.31,65.80,-14.73
1806.53,76.70,-11.91
1833.36,72.78,-12.91
1851.25,72.55,-11.99
1824.42,72.69,-13.63
1833.36,67.60,-13.11
1878.08,73.15,-13.29
1860.19,64.77,-13.86
1860.19,73.34,-12.47
1887.02,62.94,-14.70
1860.19,75.48,-13.26
1851.25,60.25,-15.35
1833.36,76.59,-14.00
1869.14,59.92,-16.13
1833.36,77.32,-13.39
1851.25,61.28,-17.97
1824.42,74.64,-14.43
1824.42,56.24,-19.54
1860.19,72.68,-15.81
1833.36,54.28,-19.66
1869.14,67.74,-17.59
1842.31,55.19,-19.03
1842.31,68.25,-18.28
1851.25,56.45,-19.34
1842.31,66.12,-17.91
1815.48,60.09,-19.49
1806.53,64.41,-18.35
1851.25,61.65,-19.12
1869.14,65.78,-20.05
1860.19,62.78,-19.41
1851.25,58.69,-17.94
1806.53,69.85,-15.96
1842.31,57.89,-17.85
1761.82,64.28,-13.65
1833.36,56.75,-17.10
1860.19,70.68,-13.25
1878.08,59.65,-16.33
1806.53,77.94,-12.16
1833.36,68.74,-14.00
1806.53,96.33,-10.46
1824.42,91.29,-14.18
1788.65,117.97,-10.01
1797.59,111.42,-11.36
1833.36,141.05,-7.94
1797.59,124.52,-8.94
1788.65,138.71,-5.34
1833.36,125.63,-8.46
1806.53,129.61,-5.78
1806.53,117.65,-5.82
1842.31,119.59,-3.36
1779.70,106.83,-5.63
1806.53,104.18,-2.63
1743.93,100.58,-2.30
1779.70,94.17,-1.92
1806.53,102.41,-1.85
1779.70,85.62,-0.84
1788.65,94.60,0.46
1761.82,80.18,-0.39
1797.59,96.06,2.90
1788.65,78.10,-0.36
1779.70,90.21,2.77
1743.93,70.58,-1.04
1743.93,83.61,3.62
1752.87,65.14,1.32
1761.82,81.52,4.53
1824.42,59.56,1.49
1788.65,81.03,3.68
1761.82,69.68,2.14
1779.70,81.08,3.82
1752.87,68.93,-0.06
1761.82,83.07,3.11
1743.93,72.26,-0.57
1788.65,85.12,2.80
1761.82,72.20,-0.26
1770.76,85.81,-0.12
1743.93,74.49,-0.79
1752.87,75.26,-2.21
1779.70,74.08,-4.32
1734.99,73.17,-5.76
1779.70,74.41,-5.24
1752.87,66.71,-5.18
1779.70,75.32,-7.49
1743.93,67.35,-8.38
1717.10,74.64,-6.83
1770.76,63.46,-11.29
1806.53,74.44,-10.09
1699.21,62.92,-13.66
1770.76,74.71,-10.43
1779.70,57.25,-15.27
1743.93,75.26,-11.85
1708.16,59.50,-17.86
1743.93,72.51,-12.84
1743.93,54.86,-18.08
1752.87,71.45,-16.24
1752.87,54.71,-18.43
1761.82,73.21,-17.45
1708.16,55.01,-19.28
1743.93,68.74,-19.50
1726.04,54.20,-20.77
1708.16,65.76,-19.83
1743.93,61.72,-20.51
1699.21,62.64,-20.46
1761.82,64.49,-21.87
1752.87,70.08,-21.12
1743.93,74.13,-22.30
1708.16,84.96,-22.28
1770.76,100.87,-21.76
1663.44,108.70,-22.96
1743.93,125.09,-21.23
1699.21,121.18,-23.08
1690.27,138.08,-20.43
1690.27,128.94,-21.86
1734.99,138.83,-18.32
1726.04,120.28,-20.75
1708.16,130.97,-17.81
1717.10,106.41,-19.51
1743.93,120.32,-15.97
1681.33,98.79,-15.72
1708.16,110.15,-12.74
1708.16,93.17,-15.65
1717.10,108.47,-12.39
1699.21,89.76,-12.69
1717.10,101.25,-10.04
1726.04,89.21,-7.91
1717.10,92.97,-7.43
1681.33,83.42,-5.53
1717.10,85.50,-4.57
1681.33,79.58,-2.82
1699.21,83.12,-1.81
1699.21,79.41,-1.25
1636.61,74.08,-1.25
1699.21,81.16,-0.20
1672.38,69.61,2.02
1681.33,77.37,2.03
1645.55,70.57,2.28
1645.55,81.70,4.10
1690.27,71.11,2.20
1654.50,84.53,5.03
1663.44,69.58,3.00
1627.67,85.00,4.79
1672.38,71.69,2.77
1708.16,86.79,5.07
1672.38,69.98,3.29
1672.38,83.74,6.52
1699.21,64.41,3.13
1663.44,78.76,5.23
1672.38,66.67,3.57
1654.50,76.99,6.84
1663.44,65.39,3.35
1663.44,77.59,6.07
1645.55,67.94,3.83
1636.61,72.99,5.64
1654.50,67.36,3.88
1645.55,71.68,4.23
1663.44,70.96,5.08
1627.67,64.90,3.85
1645.55,68.38,5.50
1663.44,63.18,4.81
1627.67,70.49,6.79
1654.50,59.15,4.30
1654.50,68.79,5.70
1681.33,61.72,1.74
1663.44,74.62,5.78
1627.67,53.75,2.39
1654.50,72.01,5.84
1699.21,55.61,2.52
1574.01,74.16,5.13
1672.38,52.29,2.10
1627.67,75.16,4.64
1582.95,60.44,1.46
1618.72,86.26,3.82
1645.55,80.39,1.18
1591.90,103.22,4.73
1627.67,103.57,2.24
1618.72,124.81,3.70
1636.61,126.99,3.39
1636.61,137.77,3.46
1690.27,134.90,5.29
1627.67,135.23,5.18
1645.55,130.39,6.01
1654.50,119.44,6.31
1627.67,118.04,6.27
1600.84,106.69,8.31
1609.78,109.83,10.04
1672.38,93.29,8.02
1618.72,105.37,10.97
1636.61,89.63,9.46
1618.72,107.67,13.01
1636.61,84.00,8.70
1636.61,100.59,13.51
1645.55,80.68,9.50
1565.07,99.67,14.20
1574.01,74.15,9.71
1618.72,90.92,13.14
1582.95,71.35,10.06
1600.84,83.50,13.55
1627.67,69.96,9.95
1618.72,77.68,12.49
1654.50,63.39,10.51
1591.90,76.62,12.30
1645.55,65.35,10.57
1582.95,75.59,12.54
1582.95,72.48,11.78
1600.84,78.67,9.30
1547.18,73.94,11.03
1582.95,72.07,10.04
1654.50,75.21,11.80
1600.84,65.06,9.95
1582.95,76.73,11.03
1574.01,66.52,8.91
1600.84,74.67,11.56
1618.72,61.17,8.90
1547.18,77.39,13.52
1582.95,60.01,10.20
1600.84,72.26,13.14
1618.72,55.03,10.03
1574.01,75.75,13.53
1574.01,54.45,10.16
1547.18,74.49,13.89
1582.95,57.56,11.88
1600.84,73.41,14.07
1600.84,54.96,12.87
1591.90,68.24,15.34
1556.12,57.58,16.67
1618.72,64.47,18.51
1538.24,62.10,17.64
1520.35,62.07,20.42
1582.95,54.89,20.41
1618.72,56.18,19.76
1574.01,59.96,21.65
1556.12,58.10,22.29
1565.07,60.69,25.07
1565.07,54.49,24.93
1556.12,62.69,25.97
1609.78,50.47,26.11
1565.07,69.49,28.62
1547.18,54.40,26.92
1538.24,77.40,30.20
1556.12,69.82,26.47
1538.24,95.31,29.98
1565.07,91.73,28.06
1565.07,117.53,32.76
1556.12,110.02,27.30
1547.18,133.68,31.40
1582.95,121.32,28.99
1556.12,133.76,28.77
1538.24,117.75,27.27
1574.01,127.58,30.42
1520.35,109.58,26.61
1565.07,107.15,27.66
1547.18,94.96,25.99
1547.18,96.41,24.63
1574.01,92.31,23.81
1529.29,89.19,24.84
1529.29,87.48,24.29
1547.18,84.85,21.76
1556.12,87.34,21.83
1529.29,77.67,20.42
1547.18,86.04,20.68
1466.69,73.87,18.19
1520.35,81.30,20.41
1511.41,65.05,17.11
1511.41,76.26,17.97
1511.41,55.60,15.41
1502.46,73.13,16.60
1502.46,54.78,13.73
1520.35,72.91,17.06
1556.12,54.70,14.39
1475.63,79.83,15.55
1547.18,58.06,14.10
1556.12,79.70,14.73
1556.12,63.39,10.99
1520.35,76.92,13.07
1538.24,66.79,11.69
1502.46,76.96,13.26
1502.46,67.96,11.60
1538.24,70.17,13.24
1457.75,65.88,11.36
1574.01,66.06,11.56
1538.24,61.83,13.58
1556.12,63.33,11.74
1556.12,67.19,13.01
1538.24,60.19,10.84
1493.52,72.24,12.31
1529.29,58.61,10.48
1609.78,69.52,13.31
1574.01,54.59,11.37
1547.18,72.57,13.36
1556.12,52.57,9.48
1502.46,70.48,13.13
1609.78,51.66,9.11
1574.01,71.62,11.50
1565.07,50.75,8.15
1574.01,66.72,12.03
1556.12,51.04,8.96
1565.07,67.02,10.60
1565.07,54.98,7.25
1582.95,67.59,10.83
1520.35,58.55,9.07
1529.29,62.15,9.32
1582.95,57.65,8.99
1591.90,62.58,9.37
1547.18,64.63,8.04
1609.78,69.66,7.43
1645.55,81.73,6.23
1618.72,83.67,6.25
1591.90,98.83,6.44
1582.95,109.83,1.61
1636.61,126.28,4.48
1582.95,124.02,2.03
1591.90,139.56,4.10
1627.67,125.48,-1.06
1591.90,137.20,2.93
1582.95,113.08,-1.57
1600.84,127.99,0.56
1636.61,104.97,-3.31
1636.61,118.56,0.48
1654.50,96.11,-2.71
1609.78,110.68,0.89
1600.84,90.76,-3.13
1645.55,99.90,-2.14
1600.84,87.20,-6.55
1609.78,92.65,-2.32
1627.67,84.36,-5.10
1600.84,89.00,-2.08
1627.67,82.04,-5.47
1636.61,82.86,-3.46
1636.61,76.03,-4.67
1654.50,76.04,-4.99
1690.27,76.87,-5.78
1672.38,73.03,-5.02
1708.16,77.89,-4.96
1690.27,70.26,-6.18
1645.55,81.05,-4.74
1645.55,70.95,-5.94
1690.27,84.91,-3.20
1654.50,73.11,-7.24
1654.50,89.32,-5.87
1708.16,73.12,-7.93
1672.38,86.74,-5.20
1717.10,69.91,-6.96
1717.10,84.73,-6.07
1717.10,62.34,-8.21
1699.21,84.94,-5.76
1690.27,61.40,-7.67
1690.27,75.22,-6.17
1752.87,66.26,-8.53
1699.21,76.44,-6.88
1654.50,67.13,-8.76
1770.76,75.83,-7.30
1743.93,66.44,-9.45
1699.21,70.67,-9.85
1690.27,66.62,-8.63
1726.04,66.75,-9.42
1752.87,67.97,-9.09
1726.04,65.88,-11.12
1743.93,69.27,-9.87
1726.04,59.60,-10.71
1770.76,68.38,-9.79
1752.87,55.47,-12.20
1717.10,69.21,-10.43
1708.16,55.16,-14.04
1743.93,69.99,-10.12
1788.65,54.53,-13.19
1726.04,71.44,-11.78
1726.04,54.14,-12.97
1743.93,73.95,-11.79
1779.70,55.45,-14.65
1770.76,76.21,-12.68
1815.48,64.18,-13.64
1788.65,86.69,-12.91
1699.21,84.93,-14.32
1806.53,110.07,-12.66
1743.93,107.07,-13.78
1815.48,127.06,-12.46
1788.65,127.08,-13.17
1815.48,132.76,-12.58
1815.48,132.25,-14.28
1770.76,128.41,-11.40
1743.93,124.50,-10.88
1851.25,115.55,-12.86
1851.25,114.48,-10.15
1806.53,102.45,-12.44
1770.76,113.91,-12.29
1761.82,95.38,-13.17
1815.48,105.11,-10.02
1779.70,93.10,-13.04
1815.48,103.40,-10.71
1824.42,86.52,-11.63
1797.59,102.45,-10.10
1815.48,77.93,-12.15
1779.70,94.03,-9.35
1842.31,76.62,-13.39
1815.48,88.52,-10.14
1833.36,71.78,-15.21
1851.25,86.58,-10.97
1779.70,69.86,-13.35
1806.53,80.47,-13.00
1797.59,71.69,-12.87
1752.87,82.38,-12.90
1815.48,76.96,-12.09
1734.99,80.09,-12.51
1806.53,78.01,-13.93
1788.65,80.35,-11.33
1815.48,82.82,-12.04
1824.42,78.46,-13.00
1815.48,76.51,-12.77
1860.19,69.56,-13.43
1824.42,82.35,-13.89
1815.48,66.05,-13.81
1833.36,79.89,-12.10
1860.19,63.81,-13.96
1806.53,82.75,-12.38
1797.59,63.61,-13.65
1743.93,82.61,-12.43
1788.65,62.24,-13.71
1770.76,76.67,-12.35
1770.76,60.50,-15.01
1752.87,78.62,-11.23
1842.31,59.76,-14.57
1752.87,77.38,-11.86
1779.70,59.37,-15.13
1842.31,73.94,-13.50
1788.65,58.94,-15.44
1815.48,67.84,-12.02
1806.53,56.17,-14.30
1770.76,63.03,-13.55
1752.87,58.45,-15.80
1770.76,61.77,-14.74
1743.93,64.57,-15.24
1734.99,58.56,-16.32
1806.53,65.90,-14.32
1761.82,54.78,-16.59
1770.76,69.09,-14.51
1806.53,57.72,-16.46
1752.87,76.76,-14.72
1824.42,71.64,-14.99
1770.76,93.92,-13.41
1699.21,90.10,-16.01
1806.53,122.09,-12.51
1797.59,110.46,-14.97
1761.82,137.51,-12.79
1761.82,124.19,-13.25
1806.53,137.35,-12.41
1770.76,115.61,-13.45
1788.65,125.38,-11.85
1788.65,110.09,-14.43
1797.59,113.98,-11.84
1788.65,97.69,-13.84
1806.53,104.44,-11.82
1752.87,92.40,-13.49
1752.87,95.95,-11.87
1815.48,91.89,-13.48
1806.53,89.78,-12.13
1779.70,90.44,-13.24
1770.76,83.25,-13.71
1734.99,88.66,-10.17
1743.93,75.07,-13.41
1761.82,82.00,-11.82
1761.82,70.87,-14.45
1734.99,79.83,-11.12
1690.27,62.76,-12.65
1752.87,78.33,-10.05
1761.82,56.61,-11.85
1717.10,77.15,-8.81
1743.93,58.18,-12.03
1717.10,77.54,-8.18
1690.27,54.87,-9.53
1699.21,80.48,-8.32
1806.53,62.75,-10.38
1761.82,81.41,-8.12
1743.93,68.16,-10.73
1708.16,77.07,-8.14
1690.27,66.67,-9.18
1779.70,73.49,-8.42
1726.04,62.52,-9.01
1726.04,77.40,-8.65
1699.21,66.48,-8.76
1743.93,71.42,-9.93
1717.10,66.66,-8.96
1761.82,65.37,-11.72
1699.21,71.68,-9.60
1708.16,59.00,-12.71
1690.27,71.86,-11.26
1752.87,54.60,-13.34
1708.16,71.36,-11.40
1690.27,55.87,-15.52
1726.04,69.88,-14.23
1699.21,52.46,-16.84
1681.33,70.95,-13.01
1672.38,51.18,-17.44
1734.99,68.43,-14.14
1708.16,49.60,-16.53
1654.50,69.66,-14.00
1717.10,52.28,-16.21
1699.21,67.03,-12.69
1690.27,51.32,-16.68
1708.16,60.72,-11.84
1690.27,50.81,-14.29
1690.27,63.95,-11.99
1654.50,58.65,-12.60
1672.38,65.38,-9.61
1690.27,69.50,-10.56
1627.67,85.02,-9.31
1708.16,91.26,-9.36
1654.50,102.90,-8.17
1672.38,121.83,-7.98
1681.33,117.31,-6.87
1699.21,132.60,-7.20
1663.44,121.36,-8.20
1645.55,133.21,-5.48
1690.27,112.82,-6.51
1663.44,128.37,-4.56
1663.44,103.48,-5.70
1645.55,112.05,-3.66
1636.61,90.42,-6.68
1627.67,98.91,-4.28
1663.44,84.64,-5.85
1672.38,98.88,-2.18
1699.21,82.53,-6.09
1645.55,95.72,-4.40
1663.44,79.97,-5.22
1690.27,90.86,-3.97
1636.61,72.10,-5.55
1672.38,81.03,-4.23
1663.44,72.74,-6.44
1627.67,71.75,-6.99
1627.67,68.97,-6.48
1681.33,69.28,-6.68
1636.61,69.73,-8.56
1645.55,65.09,-9.74
1645.55,74.55,-7.37
1618.72,68.22,-11.36
1654.50,76.83,-10.62
1609.78,68.63,-13.68
1618.72,84.10,-12.44
1618.72,66.78,-15.61
1654.50,79.06,-11.51
1618.72,63.75,-14.80
1618.72,81.88,-12.96
1609.78,62.24,-17.16
1574.01,81.42,-13.54
1609.78,64.49,-17.31
1556.12,79.92,-15.17
1582.95,65.26,-16.69
1591.90,76.19,-15.31
1574.01,59.30,-16.43
1565.07,73.14,-13.90
1591.90,61.95,-15.09
1627.67,72.41,-15.45
1565.07,64.24,-16.47
1627.67,70.87,-13.77
1609.78,70.54,-13.32
1582.95,64.85,-11.36
1591.90,67.33,-10.47
1565.07,63.31,-10.11
1636.61,70.98,-10.01
1565.07,61.24,-8.93
1618.72,67.70,-8.10
1574.01,61.20,-8.63
1547.18,71.14,-6.28
1574.01,55.49,-7.47
1565.07,71.28,-3.69
1609.78,55.35,-7.72
1556.12,75.26,-3.06
1609.78,56.43,-5.60
1565.07,79.62,-1.47
1565.07,64.74,-4.65
1565.07,99.73,-1.36
1529.29,88.63,-5.38
1511.41,114.67,-2.64
1565.07,111.50,-2.82
1565.07,130.26,-2.55
1574.01,126.14,-5.60
1538.24,137.00,-3.16
1538.24,130.39,-4.23
1591.90,126.99,-2.48
1511.41,122.16,-5.20
1538.24,114.17,-5.33
1520.35,109.79,-5.24
1520.35,103.32,-6.89
1529.29,101.76,-3.99
1591.90,97.40,-5.99
1520.35,102.31,-5.26
1511.41,87.75,-6.59
1547.18,98.09,-4.66
1547.18,80.54,-7.46
1556.12,97.94,-3.64
1565.07,77.09,-6.78
1574.01,94.97,-5.06
1511.41,72.27,-6.97
1538.24,87.50,-3.56
1457.75,63.08,-7.06
1502.46,80.18,-3.61
1538.24,65.34,-6.20
1538.24,77.95,-4.28
1529.29,64.15,-6.77
1493.52,80.44,-4.10
1511.41,76.73,-5.74
1547.18,84.03,-3.75
1511.41,74.05,-4.92
1529.29,79.99,-5.70
1574.01,76.75,-4.64
1538.24,78.39,-4.87
1511.41,78.50,-4.71
1529.29,74.90,-4.97
1529.29,78.11,-5.47
1493.52,69.93,-5.38
1538.24,74.81,-4.03
1520.35,61.71,-5.79
1493.52,82.58,-3.77
1529.29,63.44,-5.91
1448.80,75.09,-3.77
1520.35,61.35,-4.54
1448.80,77.84,-2.03
1475.63,58.97,-4.55
1484.58,77.59,-2.62
1475.63,60.47,-6.30
1511.41,74.80,-2.98
1511.41,57.30,-5.78
1538.24,71.32,-2.82
1511.41,59.35,-4.81
1556.12,73.23,-3.63
1538.24,61.41,-4.87
1547.18,70.66,-4.78
1520.35,60.79,-5.52
1520.35,61.64,-3.45
1466.69,60.91,-3.65
1547.18,64.21,-5.53
1520.35,66.12,-4.32
1466.69,59.88,-4.51
1511.41,69.75,-2.90
1547.18,70.68,-4.94
1529.29,83.53,-1.80
1475.63,82.40,-3.43
1493.52,107.59,-2.74
1547.18,106.50,-3.11
1547.18,131.14,-1.14
1448.80,119.46,-3.38
1457.75,138.60,0.85
1466.69,125.05,-2.46
1457.75,141.76,1.88
1466.69,117.42,-1.06
1502.46,128.37,1.74
1502.46,104.43,0.61
1520.35,118.10,2.18
1484.58,96.01,2.67
1547.18,110.38,3.14
1475.63,92.87,4.54
1502.46,99.95,3.65
1520.35,94.28,5.01
1511.41,96.63,4.47
1493.52,91.33,4.57
1484.58,88.41,5.92
1466.69,87.80,5.55
1457.75,82.97,5.28
1502.46,81.66,7.72
1457.75,75.34,5.77
1529.29,78.24,7.15
1484.58,69.86,5.56
1493.52,79.79,7.18
1511.41,65.24,6.13
1475.63,82.22,8.87
1511.41,67.31,7.42
1475.63,82.73,10.66
1475.63,68.36,6.00
1457.75,89.18,10.24
1493.52,69.38,6.35
1502.46,88.05,9.31
1502.46,66.00,7.88
1511.41,85.43,9.78
1475.63,67.28,9.71
1484.58,78.43,10.83
1475.63,67.71,9.04
1430.92,73.35,10.05
1484.58,64.83,8.90
1502.46,69.64,10.44
1493.52,64.38,11.62
1493.52,66.02,11.77
1511.41,71.11,10.92
1466.69,63.33,10.51
1502.46,70.91,11.95
1484.58,60.58,9.67
1466.69,66.19,12.04
1457.75,57.06,11.01
1466.69,69.11,12.76
1529.29,53.56,10.40
1502.46,71.15,13.13
1511.41,50.83,11.26
1475.63,68.18,15.20
1511.41,52.05,12.39
1466.69,72.66,16.89
1475.63,49.94,12.96
1404.09,65.95,17.00
1466.69,51.55,14.39
1484.58,66.21,18.72
1439.86,50.57,16.69
1475.63,68.49,20.13
1466.69,61.16,17.41
1475.63,77.68,19.90
1475.63,79.90,19.90
1448.80,101.79,22.60
1484.58,107.83,22.52
1475.63,119.95,24.25
1448.80,128.04,23.48
1475.63,128.30,22.75
1421.97,131.85,24.23
1484.58,122.69,23.47
1475.63,122.91,25.88
1493.52,111.18,23.81
1475.63,119.06,24.98
1466.69,95.34,22.12
1484.58,108.53,22.72
1448.80,88.82,21.37
1448.80,102.69,24.74
1439.86,83.20,20.76
1448.80,98.54,23.40
1466.69,80.20,20.36
1493.52,94.54,22.00
1475.63,77.05,18.47
1475.63,90.25,20.77
1466.69,76.81,17.52
1475.63,79.68,20.10
1502.46,67.16,18.63
1493.52,76.64,18.65
1439.86,65.86,16.80
1430.92,70.11,17.70
1448.80,69.01,18.65
1439.86,73.10,17.15
1502.46,71.35,16.48
1466.69,71.03,16.71
1448.80,79.66,18.46
1520.35,69.62,16.70
1439.86,78.94,16.34
1439.86,65.82,15.21
1475.63,79.28,18.47
1475.63,65.16,15.09
1439.86,79.70,16.63
1493.52,61.34,13.57
1484.58,76.75,15.45
1493.52,59.56,12.32
1404.09,75.99,14.44
1475.63,59.63,10.12
1475.63,76.03,12.28
1475.63,60.48,7.84
1386.20,72.53,9.00
1448.80,60.06,6.86
1457.75,72.61,5.95
1421.97,61.04,5.08
1466.69,67.41,3.82
1448.80,61.30,3.08
1439.86,66.02,1.12
1457.75,61.60,0.01
1466.69,64.76,0.43
1457.75,62.72,-0.95
1502.46,61.31,-1.40
1448.80,58.52,-2.39
1439.86,57.89,-5.21
1520.35,63.43,-2.76
1421.97,55.67,-4.70
1448.80,69.13,-3.21
1439.86,54.73,-6.24
1439.86,70.69,-3.72
1368.31,54.87,-5.39
1421.97,76.99,-3.07
1421.97,68.20,-6.80
1413.03,99.54,-3.89
1413.03,87.69,-6.85
1448.80,122.88,-2.34
1359.37,111.35,-6.64
1439.86,138.85,-3.85
1439.86,121.43,-6.15
1413.03,139.01,-3.29
1439.86,120.81,-4.91
1439.86,128.47,-2.82
1404.09,114.42,-3.78
1439.86,111.24,-4.18
1404.09,102.35,-1.91
1413.03,99.16,-2.45
1377.26,94.83,2.01
1413.03,89.52,1.71
1413.03,97.24,4.41
1430.92,85.07,4.90
1395.14,94.63,8.80
1413.03,78.84,9.47
1386.20,93.36,13.00
1457.75,75.59,13.27
1439.86,90.65,16.55
1413.03,68.41,16.54
1395.14,83.77,20.96
1377.26,67.90,20.05
1404.09,79.12,25.80
1430.92,62.44,24.39
1448.80,80.93,28.14
1439.86,68.71,26.83
1377.26,88.28,29.92
1386.20,75.01,28.54
1368.31,87.13,32.24
1395.14,74.09,30.02
1430.92,86.26,31.43
1413.03,75.58,31.45
1368.31,81.42,29.90
1377.26,72.98,28.43
1404.09,73.12,28.94
1395.14,72.12,26.87
1359.37,70.45,26.46
1350.43,74.28,25.56
1377.26,67.50,24.33
1368.31,75.94,24.73
1413.03,65.29,21.93
1350.43,79.14,22.99
1368.31,60.37,19.11
1368.31,76.56,20.01
1386.20,59.94,15.70
1314.66,79.74,19.04
1359.37,59.93,15.22
1430.92,70.69,17.36
1368.31,59.07,14.72
1323.60,72.86,15.66
1368.31,58.87,13.54
1341.48,72.15,17.57
1368.31,57.01,13.16
1350.43,72.28,16.91
1368.31,58.40,13.37
1341.48,63.82,16.43
1404.09,59.32,12.40
1368.31,70.27,15.31
1359.37,64.81,14.74
1332.54,64.90,14.72
1350.43,76.60,15.10
1377.26,80.80,15.13
1350.43,95.59,16.26
1386.20,97.90,14.74
1359.37,116.81,16.66
1359.37,112.90,14.33
1359.37,136.03,18.36
1404.09,124.68,14.69
1386.20,141.43,16.98
1377.26,122.01,14.59
1377.26,135.20,17.97
1395.14,110.06,14.39
1359.37,118.98,16.58
1386.20,102.21,15.27
1404.09,111.98,17.45
1386.20,90.61,13.80
1386.20,107.09,16.18
1377.26,91.65,14.61
1395.14,100.74,15.81
1359.37,87.73,16.35
1359.37,94.47,14.28
1350.43,87.74,17.09
1350.43,89.74,16.71
1368.31,77.78,17.20
1332.54,78.61,17.01
1368.31,76.26,16.23
1314.66,74.86,15.29
1314.66,80.93,16.15
1287.83,66.15,15.62
1359.37,81.02,15.93
1314.66,68.54,14.87
1350.43,82.55,16.23
1314.66,70.14,13.69
1269.94,91.55,15.68
1350.43,70.89,11.25
1323.60,88.08,13.75
1359.37,68.09,11.99
1332.54,91.09,13.47
1323.60,70.21,10.70
1332.54,83.37,11.93
1296.77,64.43,10.23
1314.66,84.65,12.07
1386.20,68.95,8.83
1323.60,79.60,8.69
1296.77,66.13,7.54
1332.54,73.36,9.78
1359.37,68.38,8.71
1341.48,72.10,8.90
1323.60,69.14,8.96
1341.48,66.71,8.28
1323.60,65.52,8.78
1332.54,65.23,9.06
1377.26,70.22,9.06
1314.66,64.90,8.96
1305.71,71.50,8.45
1332.54,60.94,9.03
1350.43,70.42,10.03
1296.77,59.32,6.89
1323.60,73.35,11.18
1332.54,53.99,7.91
1332.54,74.02,11.86
1314.66,53.69,8.13
1341.48,73.94,11.02
1305.71,54.73,8.55
1323.60,77.02,11.69
1287.83,61.26,8.08
1296.77,83.69,9.48
1296.77,73.76,6.95
1332.54,96.71,11.33
1341.48,97.20,8.26
1287.83,121.71,9.86
1296.77,122.92,7.90
1278.88,136.04,8.71
1296.77,131.28,8.45
1323.60,131.06,8.21
1252.05,129.69,9.44
1252.05,121.26,8.68
1314.66,119.94,10.01
1314.66,102.85,7.29
1314.66,107.38,9.51
1350.43,92.12,7.40
1332.54,104.16,9.25
1314.66,87.58,8.54
1350.43,104.14,10.10
1296.77,83.08,6.75
1296.77,102.97,9.84
1287.83,81.56,7.23
1314.66,90.05,11.26
1296.77,76.46,7.35
1287.83,90.07,10.67
1314.66,68.28,8.67
1296.77,80.48,9.43
1269.94,63.26,8.85
1305.71,76.82,11.16
1278.88,65.42,8.82
1261.00,76.35,10.17
1269.94,66.09,9.51
1287.83,69.74,10.17
1269.94,73.05,10.20
1287.83,71.83,9.95
1314.66,80.51,10.36
1269.94,70.12,9.13
1305.71,76.93,10.18
1287.83,68.49,8.57
1296.77,79.70,10.51
1252.05,68.31,8.24
1269.94,74.19,11.22
1323.60,61.37,8.53
1287.83,75.89,10.52
1296.77,58.15,9.15
1296.77,77.86,9.39
1252.05,55.79,5.52
1278.88,74.23,8.25
1243.11,55.98,5.19
1261.00,73.78,8.61
1234.17,62.48,4.24
1261.00,68.71,6.05
1261.00,58.67,3.39
1296.77,71.37,4.86
1305.71,59.35,3.42
1332.54,66.70,5.71
1261.00,61.88,3.82
1278.88,61.52,4.22
1252.05,59.14,3.19
1225.22,61.12,4.09
1243.11,60.90,3.98
1278.88,55.65,3.03
1278.88,59.13,4.92
1269.94,54.48,3.31
1261.00,67.34,4.54
1252.05,53.66,3.19
1252.05,71.27,4.92
1269.94,60.40,1.28
1234.17,86.21,4.73
1269.94,80.87,1.76
1287.83,107.86,6.37
1261.00,100.43,3.38
1252.05,129.72,4.45
1243.11,116.46,2.49
1287.83,136.92,4.74
1207.34,122.03,3.02
1243.11,133.47,5.07
1216.28,115.15,2.53
1252.05,117.79,4.06
1305.71,100.95,2.52
1296.77,103.09,2.72
1234.17,94.80,2.66
1269.94,92.95,4.00
1207.34,88.69,1.04
1207.34,94.17,3.84
1243.11,90.22,2.41
1252.05,85.00,2.33
1225.22,88.18,3.37
1198.39,78.24,1.07
1180.51,83.45,1.92
1234.17,69.48,1.15
1207.34,81.79,2.70
1243.11,63.68,-0.83
1225.22,76.25,2.61
1234.17,61.03,-0.43
1278.88,78.01,3.64
1189.45,63.46,1.06
1252.05,78.54,3.75
1252.05,64.89,-0.05
1252.05,79.24,3.09
1225.22,64.03,1.79
1216.28,78.70,4.01
1216.28,69.59,2.37
1252.05,79.19,4.21
1243.11,66.06,0.44
1216.28,80.99,4.57
1216.28,68.44,1.66
1243.11,69.41,3.41
1216.28,67.46,2.46
1243.11,64.32,3.34
1225.22,73.43,3.20
1198.39,67.03,3.30
1198.39,68.47,1.93
1180.51,67.09,2.04
1243.11,73.84,2.75
1162.62,61.92,1.18
1207.34,70.44,4.31
1207.34,61.54,0.95
1207.34,71.98,3.00
1153.68,58.77,1.58
1225.22,74.94,4.46
1153.68,55.44,2.43
1171.56,78.62,5.20
1180.51,55.05,1.85
1198.39,74.68,4.79
1171.56,54.14,2.38
1189.45,68.80,4.20
1144.73,56.38,2.02
1171.56,67.61,3.91
1153.68,57.84,2.15
1225.22,67.29,3.53
1162.62,61.02,2.22
1171.56,70.21,2.28
1171.56,77.46,2.58
1180.51,86.13,1.45
1189.45,95.12,2.21
1153.68,107.96,3.16
1180.51,123.92,2.59
1180.51,123.44,1.16
1180.51,139.58,2.26
1216.28,127.49,0.14
1198.39,139.24,0.64
1189.45,120.08,-1.04
1180.51,130.12,2.14
1198.39,108.81,-0.52
1207.34,117.94,1.80
1126.85,94.38,-2.09
1171.56,110.31,1.61
1162.62,92.54,-1.98
1180.51,106.90,1.92
1189.45,90.63,-1.06
1135.79,103.91,1.15
1171.56,85.47,-1.03
1171.56,96.95,1.11
1216.28,81.40,-1.12
1135.79,88.47,-0.22
1198.39,74.49,-0.09
1171.56,80.08,-0.16
1153.68,71.13,-0.66
1180.51,71.57,-1.12
1198.39,74.02,-0.74
1162.62,74.61,-0.95
1162.62,81.84,-0.48
1117.90,70.11,-2.55
1171.56,84.54,0.40
1135.79,71.82,-3.41
1171.56,86.92,-1.34
1180.51,74.11,-3.55
1126.85,88.96,-0.48
1162.62,70.16,-3.96
1144.73,85.92,-1.41
1135.79,67.71,-3.93
1162.62,81.63,-1.24
1126.85,65.92,-4.98
1153.68,81.60,-1.04
1171.56,67.54,-4.78
1117.90,76.07,0.08
1135.79,65.21,-2.53
1180.51,74.02,-2.27
1117.90,60.74,-3.02
1108.96,78.38,-0.46
1135.79,64.75,-2.68
1117.90,68.15,-2.16
1126.85,66.37,-1.09
1117.90,66.44,-0.70
1135.79,66.44,0.14
1144.73,63.75,-0.49
1126.85,69.82,0.68
1117.90,56.74,-0.75
1126.85,67.71,2.05
1153.68,59.75,-1.19
1153.68,73.51,-0.23
1180.51,54.58,-0.27
1153.68,71.88,1.67
1162.62,56.80,-1.60
1126.85,73.14,2.13
1126.85,58.06,-1.44
1144.73,81.93,0.51
1091.07,73.85,-1.93
1108.96,103.02,-0.19
1144.73,90.16,-3.02
1135.79,118.11,-1.91
1091.07,115.28,-2.99
1117.90,135.47,-2.19
1108.96,126.39,-4.49
1100.02,139.51,-2.70
1073.19,127.40,-3.81
1073.19,129.10,-3.12
1117.90,118.89,-4.06
1108.96,114.87,-4.39
1126.85,111.89,-4.56
1126.85,100.83,-2.20
1082.13,102.31,-3.13
1073.19,97.04,-2.67
1091.07,107.12,-1.35
1064.24,91.93,-1.94
1135.79,105.22,-1.95
1073.19,89.81,-2.24
1091.07,96.49,0.69
1126.85,79.24,-2.75
1091.07,95.45,-0.07
1108.96,73.46,-2.20
1091.07,87.41,1.45
1046.36,68.81,-1.02
1064.24,83.97,-0.44
1046.36,64.86,-1.03
1082.13,84.59,1.87
1082.13,68.37,-0.13
1064.24,82.43,2.11
1064.24,69.23,0.79
1046.36,84.56,1.49
1037.41,76.47,-0.76
1126.85,78.59,0.52
1028.47,79.48,0.61
1100.02,78.88,0.67
1037.41,81.78,1.95
1037.41,76.44,1.16
1037.41,79.27,1.62
1100.02,71.02,1.25
1019.53,76.83,2.32
1037.41,72.69,-0.33
1055.30,78.96,1.52
1073.19,66.00,0.37
1046.36,79.15,2.01
1082.13,63.77,-1.10
1046.36,80.56,1.20
1028.47,59.47,-1.76
1037.41,80.66,2.86
1028.47,60.93,-1.46
1037.41,75.75,1.67
992.70,58.29,-1.21
1028.47,75.62,1.28
1010.59,55.26,-2.12
974.81,72.36,1.39
1046.36,61.85,-1.52
1046.36,68.85,1.53
1055.30,58.20,-1.61
1117.90,66.25,0.06
1037.41,59.54,-0.61
1046.36,64.41,-0.46
1028.47,64.33,-1.21
1028.47,62.87,-1.21
1010.59,72.51,-0.75
1028.47,70.66,-1.56
1046.36,87.31,-1.59
1028.47,89.30,-3.43
992.70,108.20,-0.43
1037.41,105.08,-2.81
1019.53,135.64,-0.69
1028.47,120.20,-2.71
1064.24,137.96,1.04
1001.64,119.71,-2.53
983.76,139.28,-0.54
1001.64,110.93,-1.69
1108.96,123.70,1.05
1010.59,101.89,-2.66
992.70,109.61,-0.28
1028.47,96.55,-2.74
1028.47,104.69,-0.31
983.76,91.77,-1.86
1073.19,100.69,-0.89
1019.53,91.57,-1.28
1055.30,94.86,-0.34
1010.59,86.40,-0.81
1010.59,84.66,-1.59
1019.53,87.65,-1.92
1010.59,80.57,-2.36
1019.53,81.55,-0.46
956.93,71.09,-2.15
974.81,80.06,-0.84
1001.64,67.51,-4.47
992.70,76.52,-0.75
992.70,60.65,-3.32
983.76,81.33,-0.47
1010.59,61.98,-4.02
1037.41,80.35,0.29
1037.41,63.69,-4.09
1073.19,81.32,-1.60
1010.59,64.57,-5.16
1001.64,81.83,-2.33
1064.24,62.59,-4.70
992.70,81.44,-1.73
1019.53,65.32,-5.68
1028.47,74.70,-3.84
1010.59,68.06,-5.20
1001.64,73.78,-4.29
1001.64,66.65,-4.61
1037.41,68.97,-5.51
1028.47,68.46,-5.98
1019.53,67.53,-5.39
1001.64,68.97,-6.18
1001.64,65.61,-6.75
1073.19,67.29,-5.41
1028.47,58.42,-8.23
1001.64,72.20,-5.66
1028.47,56.84,-8.50
1046.36,70.46,-5.43
1001.64,58.01,-9.49
1019.53,69.28,-7.85
1037.41,51.22,-10.32
1055.30,72.21,-6.76
1037.41,49.75,-13.52
1019.53,70.51,-8.59
1046.36,49.79,-12.17
1010.59,68.06,-10.08
1073.19,49.52,-12.50
1037.41,64.75,-9.81
1019.53,54.50,-12.51
1037.41,72.87,-10.97
1037.41,67.37,-12.93
1028.47,86.85,-10.39
1046.36,91.14,-13.83
1037.41,100.06,-11.62
1073.19,118.54,-14.53
1019.53,119.29,-11.88
1010.59,132.12,-13.29
1064.24,126.14,-13.54
1144.73,127.27,-12.27
1126.85,118.74,-14.83
1019.53,126.69,-12.70
1117.90,103.88,-15.43
1126.85,115.87,-13.55
1073.19,94.14,-16.03
1117.90,107.10,-14.26
1073.19,82.23,-17.26
1073.19,101.55,-14.56
1100.02,80.62,-17.13
1126.85,96.90,-15.24
1117.90,73.42,-18.31
1082.13,89.43,-13.51
1117.90,72.17,-17.10
1108.96,84.28,-15.32
1117.90,69.02,-17.83
1108.96,75.61,-14.05
1135.79,68.42,-16.25
1091.07,73.53,-15.73
1108.96,65.74,-17.06
1144.73,66.53,-15.76
1108.96,65.15,-17.08
1100.02,72.58,-15.25
1100.02,69.93,-14.87
1153.68,70.39,-15.48
1135.79,71.72,-14.05
1144.73,69.03,-15.31
1153.68,79.92,-13.48
1162.62,68.41,-15.06
1126.85,77.22,-12.98
1180.51,68.10,-15.73
1126.85,86.18,-13.66
1216.28,65.13,-14.53
1180.51,79.85,-12.85
1198.39,61.51,-14.91
1171.56,76.77,-11.76
1207.34,60.28,-16.94
1198.39,77.34,-12.50
1243.11,56.73,-15.41
1189.45,73.03,-14.96
1189.45,58.76,-16.01
1198.39,75.19,-14.21
1189.45,64.24,-15.23
1189.45,68.69,-13.22
1189.45,61.07,-16.29
1180.51,71.08,-15.75
1207.34,64.75,-16.36
1162.62,64.24,-16.88
1198.39,65.54,-16.93
1198.39,64.40,-15.57
1180.51,67.02,-14.13
1216.28,58.26,-17.00
1261.00,68.03,-14.86
1207.34,55.50,-17.96
1252.05,71.46,-14.87
1198.39,59.70,-17.35
1243.11,77.81,-13.52
1252.05,67.94,-16.33
1207.34,92.40,-14.68
1261.00,88.18,-15.81
1234.17,119.78,-12.46
1296.77,111.27,-14.47
1252.05,137.16,-13.40
1234.17,123.56,-15.23
1287.83,138.54,-13.06
1350.43,124.34,-14.77
1278.88,131.15,-11.67
1287.83,117.72,-14.57
1269.94,120.32,-12.51
1287.83,110.37,-14.18
1252.05,110.69,-14.04
1287.83,105.33,-16.32
1314.66,103.13,-14.91
1252.05,102.95,-15.12
1252.05,93.31,-14.01
1261.00,95.72,-13.07
1287.83,88.99,-14.32
1287.83,94.79,-13.91
1278.88,83.12,-15.11
1278.88,92.33,-12.33
1269.94,70.38,-15.33
1287.83,89.08,-12.49
1314.66,70.03,-15.90
1296.77,87.01,-15.37
1314.66,66.75,-17.36
1287.83,85.52,-13.64
1305.71,68.55,-16.07
1305.71,88.01,-13.12
1314.66,68.56,-17.46
1314.66,85.38,-14.16
1287.83,74.84,-16.77
1287.83,86.39,-15.43
1305.71,72.64,-16.39
1296.77,85.44,-16.38
1314.66,75.88,-16.73
1287.83,80.46,-15.45
1341.48,75.10,-16.31
1332.54,73.75,-15.51
1350.43,75.66,-14.90
1323.60,70.19,-16.74
1323.60,74.54,-12.68
1314.66,67.60,-15.64
1314.66,78.33,-14.75
1278.88,64.90,-15.75
1332.54,77.18,-13.12
1350.43,62.28,-16.97
1305.71,80.47,-13.56
1305.71,61.31,-15.26
1314.66,79.57,-12.77
1287.83,59.56,-13.85
1269.94,77.95,-10.45
1252.05,56.03,-13.24
1314.66,72.83,-12.70
1323.60,56.10,-12.00
1314.66,71.30,-9.19
1350.43,57.35,-14.02
1269.94,74.06,-10.41
1296.77,58.63,-10.20
1287.83,68.56,-9.92
1305.71,60.59,-11.33
1314.66,69.21,-10.72
1296.77,68.84,-10.38
1296.77,80.47,-10.59
1359.37,90.70,-10.21
1305.71,95.16,-11.93
1332.54,109.44,-8.28
1269.94,118.00,-11.74
1296.77,133.74,-9.77
1296.77,126.38,-11.36
1314.66,145.22,-8.90
1359.37,125.85,-12.01
1287.83,141.80,-9.59
1287.83,118.21,-11.16
1296.77,127.28,-10.69
1278.88,104.06,-12.24
1278.88,117.96,-9.26
1323.60,91.73,-12.66
1332.54,107.83,-9.46
1305.71,93.33,-13.38
1314.66,107.93,-9.30
1332.54,83.82,-11.91
1314.66,99.92,-8.68
1332.54,84.85,-12.08
1323.60,92.10,-9.79
1252.05,82.44,-9.23
1278.88,82.10,-9.79
1278.88,79.43,-9.84
1287.83,81.43,-10.55
1243.11,80.13,-10.19
1287.83,73.42,-10.41
1305.71,81.88,-9.94
1252.05,69.74,-10.73
1252.05,83.33,-9.94
1225.22,72.46,-11.29
1216.28,87.53,-9.77
1314.66,71.30,-12.00
1314.66,87.74,-8.74
1287.83,71.46,-11.51
1287.83,88.85,-9.16
1296.77,68.91,-12.55
1287.83,87.52,-7.57
1314.66,67.28,-11.80
1296.77,84.49,-8.94
1252.05,67.66,-11.08
1305.71,77.72,-8.32
1269.94,66.84,-11.42
1278.88,80.36,-8.14
1207.34,72.64,-10.21
1269.94,77.35,-7.80
1216.28,68.24,-9.56
1234.17,72.90,-10.30
1252.05,66.82,-10.45
1287.83,68.76,-10.10
1216.28,76.33,-10.33
1216.28,65.33,-10.67
1216.28,71.86,-10.77
1278.88,63.07,-9.69
1243.11,72.98,-9.11
1261.00,56.66,-10.85
1261.00,72.66,-10.61
1243.11,56.19,-12.64
1216.28,70.44,-12.37
1216.28,57.39,-14.12
1261.00,73.28,-10.55
1243.11,55.09,-12.82
1252.05,76.92,-8.60
1243.11,61.89,-13.16
1269.94,83.59,-10.87
1261.00,74.60,-13.66
1207.34,95.24,-9.57
1171.56,101.70,-11.30
1243.11,123.35,-10.43
1216.28,118.67,-12.14
1216.28,135.30,-9.08
1216.28,129.01,-10.04
1216.28,132.78,-9.82
1171.56,124.87,-9.50
1198.39,120.56,-10.86
1189.45,119.44,-7.96
1198.39,105.89,-9.92
1216.28,109.76,-8.18
1162.62,99.98,-8.37
1207.34,105.69,-6.56
1189.45,90.93,-6.87
1189.45,103.57,-6.07
1234.17,86.05,-8.60
1207.34,100.35,-5.65
1207.34,82.11,-9.10
1189.45,98.67,-5.93
1216.28,74.31,-8.76
1207.34,87.38,-5.25
1189.45,67.39,-8.26
1234.17,82.69,-6.44
1171.56,60.52,-8.09
1126.85,80.02,-5.80
1216.28,62.75,-7.16
1207.34,75.47,-6.04
1189.45,63.49,-8.28
1153.68,76.43,-7.68
1171.56,69.28,-9.84
1198.39,76.07,-8.97
1162.62,70.52,-8.38
1180.51,74.30,-8.33
1135.79,77.55,-7.17
1171.56,74.19,-7.33
1144.73,74.31,-7.22
1225.22,68.69,-9.18
1171.56,75.33,-8.15
1171.56,64.82,-9.91
1198.39,75.31,-7.13
1207.34,62.94,-9.55
1126.85,74.70,-6.51
1126.85,57.47,-9.85
1189.45,77.84,-7.34
1135.79,53.19,-8.81
1171.56,76.54,-5.59
1171.56,59.39,-8.69
1126.85,74.09,-7.07
1198.39,55.67,-8.74
1198.39,71.85,-7.61
1135.79,54.69,-9.27
1153.68,66.15,-7.05
1135.79,55.73,-10.04
1126.85,62.00,-7.90
1082.13,55.25,-8.35
1144.73,62.82,-7.31
1135.79,59.07,-8.61
1162.62,57.41,-7.62
1153.68,60.99,-8.62
1126.85,57.64,-7.85
1073.19,62.33,-7.83
1144.73,55.92,-9.47
1225.22,69.12,-8.25
1108.96,63.06,-8.67
1144.73,86.36,-7.80
1135.79,77.09,-10.35
1126.85,106.95,-6.33
1162.62,100.34,-9.72
1117.90,127.77,-8.10
1108.96,119.73,-10.92
1117.90,142.71,-7.84
1162.62,119.74,-10.86
1100.02,136.49,-8.42
1198.39,113.69,-10.05
1144.73,122.90,-9.11
1153.68,105.22,-9.19
1198.39,110.90,-9.37
1162.62,95.19,-10.94
1108.96,98.16,-9.92
1117.90,91.52,-10.27
1108.96,95.50,-9.69
1126.85,87.43,-10.40
1135.79,88.61,-11.33
1126.85,88.66,-12.27
1082.13,77.97,-11.09
1117.90,82.63,-9.44
1126.85,75.18,-11.18
1117.90,78.90,-9.07
1117.90,69.95,-9.71
1082.13,75.48,-8.73
1082.13,61.14,-11.25
1126.85,78.51,-7.58
1126.85,63.35,-9.66
1117.90,82.11,-7.80
1117.90,64.29,-10.83
1135.79,84.87,-6.33
1126.85,69.27,-7.55
1046.36,85.17,-4.89
1073.19,66.13,-8.44
1073.19,85.63,-5.19
1082.13,69.63,-8.24
1091.07,80.70,-5.28
1073.19,70.44,-7.64
1117.90,74.43,-3.49
1153.68,67.98,-5.14
1117.90,74.07,-4.92
1055.30,71.33,-6.83
1100.02,70.26,-3.49
1100.02,70.10,-4.34
1073.19,67.07,-5.55
1091.07,73.76,-5.47
1091.07,68.69,-6.89
1126.85,73.60,-5.25
1100.02,62.18,-6.40
1108.96,76.75,-4.33
1117.90,62.44,-5.43
1046.36,73.63,-2.90
1100.02,55.28,-6.79
1073.19,73.56,-2.36
1001.64,59.85,-6.86
1028.47,78.10,-3.03
1126.85,57.75,-4.13
1126.85,72.33,-2.80
1180.51,55.38,-6.39
1117.90,71.96,-2.21
1108.96,57.73,-6.29
1073.19,71.95,-2.31
1082.13,63.94,-3.74
1108.96,77.62,-1.93
1055.30,74.95,-3.68
1037.41,89.51,-1.89
1055.30,97.13,-3.01
1100.02,111.41,-3.74
1037.41,120.49,-2.79
1091.07,127.09,-3.00
1046.36,136.61,-2.63
1046.36,127.77,-5.10
1073.19,134.34,-4.44
1082.13,119.53,-6.81
1091.07,128.86,-2.96
1028.47,112.54,-7.04
1055.30,117.05,-3.53
1055.30,98.15,-8.30
1100.02,110.02,-4.40
1037.41,93.32,-8.73
1100.02,106.84,-6.54
1064.24,88.67,-7.70
1073.19,101.14,-6.06
1037.41,82.20,-6.66
1100.02,95.91,-4.07
1108.96,83.03,-7.03
1064.24,89.67,-5.39
1010.59,72.39,-6.20
1055.30,86.30,-4.88
1037.41,76.34,-4.31
1046.36,80.97,-5.61
1046.36,73.63,-3.68
1046.36,73.04,-5.40
1028.47,76.04,-4.36
1046.36,75.68,-5.40
1082.13,81.08,-3.26
1091.07,74.22,-5.62
1100.02,83.68,-4.95
1064.24,74.86,-4.55
1064.24,88.48,-3.17
1091.07,66.89,-5.84
1055.30,84.35,-2.27
1046.36,67.40,-5.53
1064.24,82.05,-1.75
1073.19,67.05,-4.96
1028.47,81.63,-0.92
1028.47,63.16,-3.89
1091.07,84.07,-1.65
1064.24,63.21,-3.08
1055.30,80.14,0.32
1037.41,65.99,-2.30
1091.07,75.15,0.29
1019.53,66.89,-0.61
1064.24,70.99,-0.31
1064.24,64.91,-0.09
1108.96,69.74,0.41
1019.53,64.98,0.36
1091.07,69.50,0.96
1046.36,71.07,0.74
1100.02,63.31,3.63
1073.19,67.93,3.68
1073.19,59.75,3.32
1082.13,69.00,4.51
1028.47,59.86,4.17
1091.07,71.27,6.64
1019.53,55.62,5.10
1055.30,72.05,6.76
1028.47,60.60,6.62
1037.41,78.40,9.78
1100.02,64.73,5.26
1108.96,95.50,8.26
1046.36,86.63,5.95
1064.24,115.58,8.98
992.70,111.22,8.05
1100.02,137.62,9.44
1019.53,126.27,7.74
1073.19,143.14,8.83
1055.30,132.08,7.89
1082.13,138.64,11.50
1082.13,120.66,9.82
1037.41,126.67,10.78
1037.41,112.56,9.26
1064.24,110.62,10.07
1108.96,108.07,9.61
1144.73,103.02,9.43
1001.64,104.65,11.22
1100.02,96.69,9.83
1046.36,101.13,8.84
1037.41,90.78,9.25
1082.13,101.89,11.19
1037.41,83.92,8.65
1064.24,95.68,10.57
1055.30,75.58,9.06
1028.47,88.04,11.70
1019.53,68.00,8.76
1055.30,83.98,10.06
1055.30,64.55,6.56
1100.02,82.49,10.74
1073.19,67.70,8.31
1055.30,83.45,10.56
1046.36,76.99,7.88
1082.13,85.99,8.82
1073.19,76.58,6.34
1055.30,86.66,8.04
1001.64,80.00,8.04
1073.19,78.35,9.57
1037.41,75.00,8.66
1073.19,73.24,6.73
1055.30,71.63,8.26
1028.47,69.53,6.60
1046.36,71.88,8.26
1117.90,64.19,5.85
1055.30,73.34,7.57
1082.13,61.31,4.79
1001.64,75.40,6.94
992.70,59.59,5.86
1055.30,75.52,7.34
1010.59,59.23,3.97
1046.36,76.50,7.42
1073.19,51.62,5.24
1028.47,75.20,7.18
1055.30,52.42,6.62
1046.36,73.33,6.37
1073.19,53.92,3.21
1046.36,68.79,6.41
1010.59,53.23,2.54
1100.02,67.81,6.22
1100.02,56.69,0.68
1028.47,64.39,2.89
1001.64,59.02,1.85
1019.53,63.40,2.71
1055.30,57.72,0.51
1019.53,56.64,1.05
1064.24,63.13,-0.48
1037.41,60.04,0.18
1064.24,71.94,-1.30
1046.36,72.41,-2.12
1055.30,91.58,-0.69
1019.53,91.80,-3.43
1064.24,110.33,-0.47
1028.47,109.27,-3.60
1028.47,134.31,0.49
1082.13,119.49,-3.76
1055.30,134.79,-0.96
1037.41,117.02,-3.57
1073.19,128.99,-3.70
1100.02,108.47,-5.21
1055.30,116.78,-1.84
1055.30,94.77,-4.30
1019.53,105.02,-2.33
1037.41,87.74,-4.74
1055.30,99.71,-3.37
1037.41,87.68,-5.16
1028.47,93.86,-2.54
992.70,87.98,-3.27
983.76,88.46,-3.78
1019.53,84.17,-4.15
1046.36,78.33,-4.88
1073.19,80.27,-3.71
1001.64,75.05,-4.86
974.81,79.66,-3.20
992.70,69.64,-5.06
1037.41,73.73,-5.09
1010.59,60.99,-6.85
1046.36,72.60,-2.84
1019.53,64.75,-7.79
1037.41,77.66,-3.45
1046.36,65.14,-6.55
1010.59,82.91,-4.47
983.76,66.96,-6.20
1010.59,81.77,-4.79
1010.59,66.17,-8.53
1037.41,80.64,-5.59
939.04,61.86,-7.47
1010.59,79.03,-5.15
1001.64,61.55,-8.65
992.70,80.00,-6.07
983.76,63.99,-8.76
1028.47,74.02,-7.84
1010.59,63.86,-8.52
1037.41,68.65,-7.18
1055.30,62.83,-7.77
1019.53,70.21,-7.10
1028.47,68.04,-7.73
1010.59,64.38,-10.33
1010.59,67.80,-8.55
1019.53,58.50,-10.38
1001.64,68.91,-9.28
965.87,57.10,-10.84
1028.47,69.96,-8.71
1019.53,54.73,-12.51
992.70,73.25,-8.46
1010.59,55.48,-10.99
1037.41,70.89,-9.85
992.70,57.94,-13.28
1046.36,69.78,-9.79
1037.41,55.87,-11.59
1019.53,70.23,-8.37
983.76,54.55,-11.38
1001.64,73.96,-9.64
1019.53,63.88,-12.78
983.76,82.44,-9.89
1037.41,78.63,-10.07
1010.59,99.45,-9.29
1001.64,105.40,-11.13
983.76,120.24,-10.03
1028.47,126.18,-9.61
1037.41,131.39,-10.42
1019.53,135.21,-9.39
1001.64,132.34,-10.38
992.70,131.51,-9.59
1019.53,119.12,-10.73
947.98,121.96,-9.76
1010.59,100.30,-11.93
1028.47,112.74,-9.28
992.70,93.83,-12.01
1028.47,103.57,-9.97
965.87,85.82,-12.52
965.87,105.20,-9.89
939.04,86.38,-11.68
956.93,102.18,-9.40
992.70,77.52,-12.49
1019.53,89.27,-9.83
1019.53,77.65,-11.98
992.70,87.30,-10.68
983.76,73.97,-13.01
992.70,83.12,-10.80
1019.53,72.12,-11.17
992.70,78.00,-10.99
974.81,71.85,-13.15
983.76,76.97,-11.63
983.76,74.77,-12.02
1019.53,79.68,-11.31
983.76,79.72,-9.22
1019.53,78.57,-10.51
956.93,85.51,-9.96
974.81,77.03,-11.45
1028.47,82.43,-9.89
1019.53,74.45,-10.35
983.76,83.26,-8.93
974.81,68.44,-11.76
992.70,80.61,-8.57
965.87,62.39,-12.11
965.87,82.97,-9.10
983.76,64.19,-10.68
1019.53,84.23,-7.90
974.81,57.67,-11.69
956.93,78.44,-8.19
965.87,63.26,-11.88
1046.36,76.78,-7.36
956.93,61.39,-10.64
983.76,73.95,-8.04
983.76,63.08,-11.50
921.15,68.68,-10.29
947.98,60.92,-9.40
974.81,70.68,-9.62
956.93,63.14,-10.53
992.70,62.11,-10.11
983.76,67.06,-10.17
947.98,63.27,-10.89
956.93,66.14,-9.53
992.70,59.06,-10.17
992.70,70.02,-10.61
930.10,56.39,-11.09
965.87,74.60,-8.44
983.76,63.64,-10.20
974.81,85.82,-8.61
983.76,80.25,-10.08
930.10,105.01,-8.62
974.81,100.24,-10.53
921.15,131.88,-6.87
947.98,120.13,-11.04
983.76,140.73,-8.42
956.93,124.03,-11.79
947.98,140.75,-8.68
974.81,117.94,-10.31
974.81,128.03,-7.24
974.81,112.26,-9.90
983.76,115.42,-8.35
983.76,99.80,-10.01
921.15,105.20,-8.17
912.21,100.31,-9.59
974.81,97.87,-9.56
921.15,97.14,-10.12
903.27,94.43,-8.48
992.70,97.54,-9.00
974.81,85.60,-9.45
930.10,98.12,-8.87
921.15,78.57,-9.54
939.04,90.74,-7.56
947.98,69.26,-11.02
947.98,87.51,-8.44
974.81,67.95,-10.45
992.70,83.41,-10.28
1001.64,67.20,-12.24
947.98,87.77,-9.65
947.98,68.45,-12.38
947.98,86.60,-9.32
1001.64,74.09,-10.95
983.76,89.67,-9.90
921.15,72.12,-13.12
939.04,89.79,-11.40
930.10,75.80,-11.77
965.87,86.08,-12.46
956.93,72.77,-15.18
912.21,77.89,-12.55
947.98,75.16,-13.42
930.10,75.18,-12.67
858.55,70.63,-13.07
903.27,71.13,-12.88
947.98,74.83,-12.83
947.98,65.51,-13.32
965.87,75.31,-11.24
974.81,67.10,-12.93
965.87,75.18,-11.64
983.76,62.73,-13.20
992.70,75.39,-9.67
956.93,58.28,-11.77
939.04,76.18,-6.41
983.76,56.88,-9.90
921.15,74.39,-7.40
947.98,55.32,-10.75
983.76,73.71,-7.19
939.04,56.62,-9.24
939.04,76.52,-7.03
939.04,59.61,-9.09
921.15,71.75,-8.00
947.98,58.02,-9.24
921.15,68.95,-7.99
939.04,59.66,-8.53
965.87,72.58,-6.89
956.93,71.72,-8.74
903.27,83.56,-8.16
930.10,95.45,-7.74
939.04,105.09,-9.63
947.98,119.79,-8.23
894.32,123.95,-8.82
956.93,139.81,-8.64
983.76,133.38,-10.35
930.10,145.70,-7.59
894.32,122.81,-11.14
903.27,131.76,-9.31
912.21,108.12,-11.95
956.93,122.42,-9.44
939.04,98.45,-10.22
956.93,112.04,-9.51
930.10,94.40,-11.96
956.93,106.45,-8.87
903.27,88.43,-11.45
903.27,101.93,-8.07
921.15,82.90,-12.28
903.27,96.52,-8.31
822.78,82.45,-11.43
894.32,86.23,-9.32
876.44,72.48,-10.66
921.15,73.14,-9.67
858.55,70.97,-11.07
903.27,72.63,-9.02
867.49,70.99,-9.08
912.21,64.25,-10.74
939.04,74.59,-10.30
947.98,67.37,-10.97
921.15,79.78,-10.95
939.04,66.17,-12.54
876.44,83.49,-10.75
885.38,66.12,-11.81
894.32,82.43,-9.14
903.27,67.84,-12.73
849.61,81.60,-9.52
912.21,66.74,-13.66
894.32,81.40,-9.67
885.38,61.83,-12.55
921.15,75.33,-8.82
867.49,61.01,-10.70
858.55,72.56,-8.83
876.44,59.59,-11.68
885.38,70.98,-10.14
894.32,62.35,-10.72
939.04,71.86,-9.70
867.49,61.02,-11.00
903.27,66.82,-10.85
840.66,64.86,-10.01
840.66,62.95,-10.80
867.49,63.40,-9.13
858.55,60.57,-9.92
876.44,63.91,-9.51
876.44,55.10,-11.89
921.15,67.49,-11.20
894.32,54.56,-11.47
867.49,67.12,-11.00
876.44,50.27,-12.53
849.61,70.45,-11.11
840.66,45.64,-13.02
876.44,69.74,-8.68
885.38,50.41,-13.67
813.83,67.73,-10.03
867.49,53.89,-12.70
858.55,71.88,-7.81
867.49,57.79,-11.47
885.38,83.52,-10.26
858.55,85.39,-9.70
849.61,107.40,-7.58
804.89,104.39,-8.00
813.83,125.53,-7.04
840.66,121.52,-7.37
849.61,131.94,-7.62
876.44,125.18,-7.61
840.66,124.68,-5.84
840.66,120.02,-5.61
876.44,108.15,-6.73
858.55,108.97,-5.20
822.78,96.34,-7.02
831.72,103.48,-3.49
840.66,88.66,-5.58
822.78,99.24,-3.33
813.83,81.38,-8.35
822.78,90.91,-3.60
795.95,74.22,-7.13
876.44,90.43,-6.45
822.78,76.12,-7.58
813.83,86.03,-5.29
813.83,61.42,-10.02
840.66,79.59,-7.51
822.78,61.14,-9.37
795.95,76.64,-7.33
840.66,58.87,-11.88
831.72,67.04,-7.72
822.78,62.42,-10.83
795.95,69.42,-10.67
840.66,63.29,-10.74
876.44,70.85,-8.97
822.78,71.31,-9.35
867.49,68.85,-10.51
813.83,74.80,-9.24
804.89,70.60,-9.83
840.66,73.76,-10.23
760.17,65.93,-9.14
787.00,76.35,-7.65
885.38,60.97,-9.62
787.00,79.44,-8.03
787.00,58.36,-9.36
840.66,76.37,-7.65
822.78,61.75,-11.67
849.61,72.41,-7.97
822.78,59.94,-10.17
840.66,75.66,-6.92
795.95,58.26,-8.86
760.17,71.97,-5.95
849.61,57.53,-10.72
813.83,72.67,-6.83
813.83,57.94,-9.67
849.61,68.21,-4.96
849.61,54.50,-9.11
787.00,69.34,-7.32
778.06,61.79,-8.46
795.95,65.59,-8.21
822.78,61.36,-7.40
778.06,67.80,-7.64
813.83,64.49,-6.85
787.00,60.92,-6.45
849.61,68.47,-5.69
751.23,59.81,-5.38
822.78,70.61,-4.38
804.89,67.41,-6.19
787.00,83.63,-4.41
804.89,85.22,-5.26
822.78,110.71,-3.71
804.89,112.14,-5.93
795.95,135.52,-3.28
769.12,123.32,-5.24
769.12,143.56,-3.57
787.00,127.63,-6.18
804.89,140.64,-4.19
804.89,117.45,-7.35
769.12,126.34,-4.65
813.83,105.20,-8.05
787.00,112.60,-5.22
813.83,101.82,-8.04
787.00,106.53,-6.00
769.12,94.52,-8.35
778.06,99.66,-6.94
778.06,93.72,-9.45
813.83,92.50,-8.57
778.06,92.55,-8.61
804.89,86.33,-9.77
760.17,92.70,-8.77
778.06,78.05,-9.94
778.06,90.05,-8.24
769.12,69.05,-9.12
769.12,83.66,-8.40
795.95,66.16,-10.49
751.23,83.43,-6.67
778.06,60.91,-9.83
760.17,81.07,-6.17
778.06,63.84,-8.97
742.29,85.39,-5.18
742.29,72.23,-7.38
778.06,84.38,-3.63
795.95,72.66,-5.44
787.00,86.69,-4.20
724.40,67.83,-7.01
760.17,79.16,-4.07
778.06,68.50,-3.89
751.23,80.34,-5.19
733.34,69.13,-3.21
778.06,75.02,-2.73
724.40,70.63,-3.50
724.40,71.93,-2.50
742.29,71.22,-1.92
