ECG1000
31052
28062
29999
27878
30911
28861
30588
32983
30374
29751
30200
31186
28154
31221
26368
29136
28385
30621
29122
31720
29407
32526
30064
32036
30126
29416
30352
30434
30659
28466
29887
30147
27562
31511
28534
31636
29576
31748
29094
29666
29890
31644
29002
31698
27897
29102
27044
25922
27670
28929
30115
29648
28620
30112
30318
30588
29458
30186
27943
31571
27831
31136
27583
30184
28872
29557
27649
28826
27206
29429
29755
29747
29747
32222
32188
29607
30001
28969
28645
28538
28332
27886
28916
27735
31500
27141
29664
27342
32065
28163
30491
30308
29517
29412
29280
28748
29245
29090
30450
27199
29408
28974
29664
30368
31634
31620
35058
30501
32454
27789
31431
29509
30911
27731
31491
29714
30546
30694
30104
30921
30561
31055
31090
29404
32111
31190
32996
31764
32544
29075
31860
26252
28647
29139
31728
30619
33312
31219
34082
31812
33124
32220
31252
33631
32656
32987
30402
32082
31787
31465
32597
31177
31846
31810
32746
31903
31121
34141
32115
31958
31947
30615
29832
30128
26205
30752
29073
33027
29415
31452
30516
33473
31251
31677
30398
30430
31357
29992
30331
29585
29722
30491
29104
30194
29488
30274
30442
30726
29605
30428
28441
30779
27921
29789
27979
27590
27523
26509
27759
28085
29191
28464
28597
29112
29041
29728
29148
29456
28080
30004
28005
30641
27456
29602
26417
26417
27109
26841
29427
28180
29890
29370
29398
30431
29470
29239
29244
29086
28880
28552
28284
28007
28450
28965
30958
27917
30006
26551
31273
28621
30822
31715
29069
29294
29107
28023
29206
28991
29960
29998
29502
29555
29077
29870
31291
30555
32010
29439
30677
27822
29752
29691
29944
29493
30347
30478
31842
32621
32523
34270
34110
37148
37576
39339
41722
41675
42608
42617
43426
42692
45889
43311
46318
45422
47657
46021
49512
48203
51712
50638
52920
51387
49586
50045
47288
45417
39356
37525
33628
30264
31495
28043
28556
25626
24789
21359
20111
20813
23848
22692
26653
25046
26936
25975
25959
28147
29362
31227
30783
30567
31164
31442
32030
31086
31633
29679
32108
29389
31900
29171
31200
29578
29412
29121
29451
29183
30558
31223
29770
33138
32107
31282
30495
30331
29203
30065
28468
29431
29344
29565
31868
28872
30634
28663
32482
31624
29892
31574
31574
29929
31767
30026
33292
28975
31162
25316
27405
28190
30676
28962
32302
30479
31759
31422
30673
30107
30010
31350
30211
30418
30023
30037
30664
30725
31990
29665
31372
28392
31589
30088
31509
33943
30959
30921
31057
29374
30264
30043
28494
31586
29982
31973
30761
31509
32199
32532
33138
31572
32193
30517
32470
31158
31382
30803
30851
31299
32059
31525
31242
31631
29775
32146
31622
35366
35167
33312
32900
32340
30889
31005
32191
30722
33272
30844
33360
31189
33416
31867
34267
32329
33840
32351
32351
32883
33404
34095
32602
32276
32945
28110
34074
31651
33760
33124
34414
32363
34760
31383
35077
30972
34367
31191
32674
30213
32144
31319
32515
32522
33440
31868
34075
32283
34193
32374
34452
31759
34912
31452
36160
30743
34804
29304
31556
30266
33608
31574
34815
32736
34033
33657
34036
32282
33520
32916
33160
32356
32418
31799
32747
32380
34708
34708
31426
33428
30273
34533
32466
34338
35261
32704
32802
32738
31521
32260
32435
32658
33215
33103
33131
32510
32710
34445
33205
35878
32952
34422
32207
32896
32484
32449
31339
31556
32033
31134
33020
30038
32166
30091
32722
30962
31062
33751
31752
30985
31515
29346
29830
29023
25678
30463
28906
32395
28727
30951
30256
32553
30264
31104
29447
29925
30461
30267
29786
29823
29416
31030
29741
30071
28063
29815
27484
31623
29181
35423
32396
32376
29743
31429
27842
30047
28262
29689
29675
29163
30597
28717
29684
29325
30667
29780
29820
30158
28963
30846
29768
31069
28787
29787
29494
25699
29383
29549
29528
31025
30244
30809
33896
29629
31664
28306
30980
29237
29419
27728
28960
28773
28836
30037
29044
29274
30304
30347
31048
29170
30805
29813
31570
29613
32648
28474
31002
24782
26754
27463
30370
28110
31960
29351
31983
30067
30332
29550
30374
30374
30622
30356
29543
29618
29236
30500
29843
31656
28457
30670
27687
31441
29204
30456
32870
30189
29660
30025
28300
29460
28863
26916
30372
28454
30664
29838
30238
30782
31051
31495
30523
30352
29124
31258
29917
30629
29460
30151
29767
30289
29490
29556
29900
27892
31003
29914
33879
33165
31985
30821
30999
29140
29960
30270
25982
28365
28325
30639
29485
29531
29962
31441
31376
30407
30573
28717
31657
28508
31042
28661
29996
30033
29688
28708
29206
28609
29231
31002
29821
33217
32742
31004
30310
30793
28768
30326
28318
29243
28946
29343
31737
28691
30396
29268
32241
29700
31076
31425
29662
31557
29874
30519
29560
30742
30844
27967
29701
30101
29472
30850
31555
32016
35291
31493
32859
28766
31475
30207
30675
27684
30212
29185
29926
30506
29513
31090
30038
30910
30336
28676
31593
30844
32202
31292
31820
28565
31290
24959
27112
27859
30708
28800
28800
32008
29367
32536
30121
31261
29511
29130
30641
29964
30283
28860
29798
29874
29154
31356
28160
30764
28727
31501
29088
30010
32222
30587
29438
30616
27634
28962
27494
25476
28314
28391
30599
28656
29347
30007
30906
30586
29742
30328
28357
31242
28907
30492
28507
29910
29749
30576
29019
28718
28824
28312
30564
29789
34013
34040
31610
30656
30736
28920
29436
29483
28847
30616
28551
31264
28327
30805
28940
32238
29492
31502
30573
30297
30991
31142
30943
30330
30741
31419
26773
31908
30104
31955
32061
31143
31768
32663
33080
30905
31728
30648
31076
30103
29697
29486
31100
30122
33091
29367
32468
29041
34620
31211
33842
33528
32539
32277
32120
31267
32696
32238
33946
31839
32344
31914
32096
32672
34234
33358
36909
33154
34362
30662
33136
31678
32745
30204
31908
30679
31892
31973
31493
32058
30914
32093
31344
30355
32920
31996
32607
31603
31527
31527
28709
31493
26452
28952
28307
30047
29085
31122
29439
31860
29693
31037
29559
28174
30092
29256
30107
26830
29314
28334
27708
29480
27862
29616
29393
29844
28711
27513
29973
29316
29261
29550
28085
27208
27141
23942
28246
26572
30382
27376
28844
27994
31219
29332
30335
28578
28567
30252
28421
29116
28527
29036
30154
28152
28538
27724
28470
28112
30357
28424
33602
31058
30433
28548
29481
27435
29215
27083
28395
27738
28522
29873
28115
29080
28327
30641
28848
29468
30323
27989
30335
28968
29980
29090
29983
30561
28436
30342
31419
31820
34187
35526
36761
41902
38477
41504
38477
42744
41470
43215
40701
43696
43893
45634
46203
46569
47313
47648
48432
49996
50794
52879
51507
51228
50638
48275
46922
43505
40568
38329
34552
33495
31206
29845
29533
27072
27254
23207
23049
20525
23604
24017
25570
25695
27852
28086
29531
30378
30122
31177
29800
32543
31338
33127
34015
32991
32600
31749
31146
30254
31789
29180
31619
29984
29984
31780
29769
32257
30870
32954
30897
32546
30880
30397
31403
31438
32553
29827
30735
30084
27475
31500
30114
31804
31255
32156
30383
30694
30011
32497
30035
31982
29452
29639
28448
27744
29053
29904
31267
30942
30181
31184
31150
31611
30706
31358
29899
31964
29468
32217
29307
31310
29830
29170
29213
29848
29695
31023
32023
30540
33229
32284
32044
31186
31255
29792
30884
29324
30060
29964
30695
32136
29939
31007
29566
33181
30827
32528
33039
30756
31665
30246
30787
30602
31763
32320
30672
30851
31598
31000
32630
33506
33501
36509
33046
34105
30544
32979
32303
32533
30509
31864
31223
31793
32782
31611
33364
31982
32894
32601
31479
34318
33474
34018
33339
33250
30892
33882
28765
31184
31039
33438
32227
34709
32478
35378
33187
34774
31961
32683
34114
33210
33278
32608
33146
32903
34208
32845
32626
33223
31692
34242
33892
37359
37177
35283
34936
34503
33082
33250
34315
32426
35277
32285
34747
32719
35042
33836
36124
33527
35470
33415
33836
34493
34893
35422
34146
33687
34210
29406
34898
34898
32840
35004
34596
35440
33511
35912
32021
36614
32043
35096
31937
33514
30785
32386
31661
33496
33281
33676
31600
34107
32147
34643
32309
34353
31554
34753
31434
35808
30713
33700
28406
30601
29452
32546
30546
33854
31348
32657
32466
32318
30884
32175
31587
31409
30387
30260
29983
30904
30450
32560
29767
31104
28232
32042
29779
31857
32720
30269
30079
29822
28670
29844
29705
30154
31129
29262
29815
29355
29922
31477
31066
33385
30285
31411
28436
30906
30109
29740
28723
28957
29106
29628
29637
29117
29581
28281
30050
29232
30679
31511
30948
30176
29936
29297
28497
29838
27514
29278
28820
29476
29447
30600
29613
31386
30431
30728
30355
28420
31247
29324
31682
27581
30292
28562
27887
29896
29583
30803
30713
30143
29990
28729
30051
30918
29971
30748
29140
28170
28287
26234
30464
29686
30835
29025
30108
29751
31048
30128
30524
30574
28897
31277
30352
31635
29606
30566
29860
25778
29744
29799
30558
31495
31285
31243
33964
30029
32622
29363
31167
29480
30042
28239
29581
29684
30252
30252
30756
29753
30135
31076
30816
31163
29719
31443
30243
32528
30152
33492
28949
31509
25820
27586
28433
31314
28819
32548
30077
31910
31078
30916
30234
31007
31028
31123
30154
30088
29915
30839
30567
32256
28774
31096
27836
31516
29857
31176
33341
30371
30191
30354
28607
29447
29344
27720
30662
29573
30974
29974
30614
31285
31150
32068
30477
31260
29117
31492
30727
30837
29980
30232
29769
30751
30058
29707
30491
28284
31410
30686
33692
32951
31769
30804
30910
29669
29553
30502
28834
31418
29723
30729
29249
30978
30391
32340
30447
31853
30675
29468
31023
30858
32393
30057
30799
30474
26755
31319
29824
31349
30609
31547
29984
31434
29116
31918
29171
31469
29028
29496
28092
28025
29011
29519
30984
30049
29691
30764
30326
30509
29892
30796
29177
31448
29311
32187
28547
30711
27766
27989
28233
29634
29223
31046
31302
31833
35379
31294
32802
28783
31927
29771
30788
28101
29992
29548
30168
30709
29600
30725
30694
30976
30808
29270
31547
30732
32178
30729
32664
28788
31684
25075
27286
28085
28085
30769
28459
31920
29639
32121
30538
30905
29954
29840
30662
30381
30345
29204
29485
30282
29568
31288
28620
30621
28320
31468
28915
30609
33100
31208
30375
30592
28186
29808
28826
26289
29751
29464
31513
29737
30524
31507
31911
32201
31038
31786
30432
32776
31255
32168
30865
31955
31291
32569
31341
31002
30887
30240
32387
31440
35950
35808
33967
33072
33037
31560
31783
32465
31484
34297
31518
34452
31669
34370
32667
35253
32930
34467
33090
32918
33617
34192
34023
32760
32743
32947
27583
33699
31578
33819
33343
34300
32637
36113
30903
34763
30003
33496
30281
31859
29133
31340
30273
31865
30917
31566
29822
32020
30314
32271
29638
31882
29227
32127
28601
33008
27507
30829
24592
27256
26635
29598
27620
31377
28625
29950
29236
29029
28200
29367
29284
28567
28343
27916
28305
28799
28634
30540
27327
29265
26038
29528
27768
29822
30558
29392
31246
30142
30818
27394
30180
24294
26630
26676
29280
28178
31061
28629
30987
29262
30144
28762
27724
29595
29105
29502
27189
28931
28365
28391
29976
29976
28157
29681
28599
30422
28818
28254
31602
29754
29602
29768
27966
28049
27821
23910
28634
27200
31181
27908
29739
28832
31815
29751
31177
30075
30501
32053
31458
32270
32622
34109
35972
36108
37015
37368
39132
39320
42928
42124
48115
47052
46507
45550
47463
44908
47127
45792
47543
48978
49110
52033
50274
51121
50022
50260
46838
43288
40420
35548
35959
32431
32231
28082
28485
25397
20238
22343
21312
22602
24462
26558
27151
32552
28630
32452
28248
32902
30276
31906
28928
31755
30741
32188
31950
31691
31459
32644
32034
32673
30401
32602
31269
33164
31253
33970
29426
32449
25240
27835
28351
31567
29214
33158
30299
32657
30664
30931
29649
30502
31152
30726
30567
29630
30395
30641
30331
31926
28743
30495
28411
31260
29452
30937
33738
30682
30140
31007
29178
29998
29476
27839
30895
29536
31485
30597
31177
31785
32066
32608
31157
31292
30092
32084
31213
31189
29432
30780
31158
29509
32584
29775
32216
30839
32464
30305
30354
32473
32762
30955
32744
29710
30347
29332
27309
29606
30005
30005
32549
30802
30935
31425
32607
32214
31869
32140
30781
33185
30129
32596
30498
31940
32051
31896
30898
31544
30765
31532
33165
31466
36335
35401
33779
32513
33141
30989
32626
31285
31805
32444
31746
33364
31330
33046
31914
34768
32891
33617
33918
32478
34269
33005
33417
32407
33881
33686
30437
33170
33075
33437
34952
34906
35535
38875
34959
36400
32261
35234
33613
34209
31632
33808
33236
34174
34694
33464
34283
34264
35055
34968
32938
35598
34781
36039
34627
36632
32648
35416
29122
30960
32140
34606
32452
36183
33638
35860
34334
34545
33981
33618
34959
34217
34411
32848
33720
34420
33625
35287
32151
34352
31845
35007
33024
34224
36777
34512
33524
34174
31905
33144
31584
29531
32559
31633
34143
32552
33221
33945
33927
34546
33096
33705
31363
34321
32337
33273
31109
32872
32041
33250
31406
31930
31132
30071
32806
32065
35794
35746
33675
32544
31735
30813
30934
31692
29565
32588
30287
30687
31088
29525
31441
30491
31900
30190
31707
28477
31972
28086
32006
27781
30887
29363
29768
27934
29502
27603
29959
30310
29944
32301
32755
30398
30496
29367
28900
28962
28712
28160
29142
27898
31332
31332
27711
30662
27991
31788
28783
30928
30651
29651
30007
29296
29124
28996
29355
30595
27766
29260
29099
29089
30701
31437
30953
34639
30546
31929
28261
31126
29356
30198
27439
29322
28721
29344
30083
28558
30198
29176
30511
29846
27837
30835
30590
31023
30726
31145
28279
30448
25503
27132
28322
29731
29423
31368
30099
31835
30751
30951
30396
28784
31347
29922
31397
27870
30627
29568
30105
30736
28993
30272
29978
31107
30172
29288
32868
30451
30548
30509
28882
28710
28400
25096
28991
28248
31639
28745
30155
29959
31651
30434
30709
29432
29427
30725
29223
30500
29576
30080
30832
30079
29343
28716
29257
28257
31229
29239
34404
33241
32165
30248
31117
27968
30153
29034
29602
30247
29358
31503
28995
30901
29824
32308
30313
31498
30573
29870
31332
30588
31153
30113
30577
31106
26809
30920
29834
30999
31559
32209
31711
35898
31796
30883
31154
30593
30034
29974
29515
29639
29334
29695
31780
28727
30755
28091
32355
29751
31716
32139
30072
30605
29365
29407
29597
30042
30872
30215
29475
30172
29488
31025
31744
31894
34280
31012
31986
28796
31125
29964
30709
28699
29978
29474
30092
30876
29760
30869
29746
31135
30296
29561
32300
31539
32079
31245
31161
28743
31226
26741
28547
28507
30460
30460
29381
31770
29775
32550
30575
32296
30495
29894
31149
30920
30954
28987
30086
30232
28726
31735
29168
31761
30090
31965
29865
30196
31543
32543
30880
32968
30133
31072
29405
27570
29773
30404
32255
30972
31144
31589
32862
32829
31839
32566
30527
33360
30995
33155
31421
32814
32972
32801
31931
31939
31864
32147
34277
32930
37792
36016
34721
33208
33696
31707
33139
31664
32544
32590
32103
34267
31735
33103
31993
34467
32487
33253
33516
32051
33668
32712
33187
31249
32632
32412
29458
31402
31649
31433
32891
33083
33262
36346
32170
33644
29262
32435
30352
31104
28082
30193
29783
29975
30652
29034
30119
30204
30788
30667
28620
30478
30162
31105
29685
31832
28496
29205
29413
29811
28410
30096
29252
30061
31227
30983
33048
30417
31345
28707
30386
29383
29827
28437
29256
28776
29848
29709
28856
29742
28615
30180
29822
29589
31646
30447
31192
29504
30026
27591
31144
26063
29264
27415
30250
28123
31578
28648
32297
28872
31942
29011
29677
29932
30676
30250
28928
28931
29585
26823
31022
27660
31080
28019
31268
27920
29458
29881
31548
28915
32890
28868
31332
29269
29798
31314
35038
36183
38057
37453
40622
40977
43347
42262
44228
42094
46927
43644
47776
44526
47478
45935
48041
46925
49012
49012
48520
50541
50787
49008
51488
47733
43061
38554
35540
31954
30730
28251
26641
25829
23117
23823
19263
21588
20087
25000
23145
26286
27306
27584
29120
28788
29676
29600
30842
31154
28272
30532
30561
30451
32057
32364
32640
35996
31932
33244
29246
31846
30290
30664
28190
30178
29919
29362
30508
29087
30998
30085
31186
30115
29303
31104
31371
31380
31640
31770
29435
30832
26171
26270
28716
29906
29432
31824
30613
31428
31091
30208
30981
28800
32159
29834
31666
28447
29852
30722
30005
31949
29170
31783
29107
32079
30194
32103
32582
32684
31795
31567
30675
29419
31405
28243
29765
29655
31094
30023
32230
30868
32918
31265
32808
31167
30172
31947
31742
32674
29538
31487
30954
28906
32500
30203
32801
31455
33097
30595
31038
31701
32944
30869
33308
29989
30960
29374
28191
30062
31320
32092
32116
30624
32343
32823
32986
32575
33307
30926
34236
30602
34132
30879
33508
32231
32788
31030
32124
31151
32826
33816
33002
36316
35404
34135
33512
33161
32119
33138
31782
32551
32864
32490
35054
31794
33563
32151
35555
33227
34120
34945
33132
34557
33325
33898
32908
34431
34377
31889
33580
34043
33144
35268
35578
36079
39404
35435
37001
33160
35855
34395
34576
31843
34280
33375
33622
34624
33200
33200
35131
34392
35320
34609
32854
34952
35030
35905
34996
36066
32653
35583
29419
30843
31991
34730
32735
36420
33815
35882
33820
34832
33854
33128
34485
33860
33840
32564
32855
33506
32915
34650
31566
34063
31773
34204
31990
33272
35650
33792
32486
33582
30672
31887
30524
27878
31424
30646
32880
31002
33423
31837
34008
31975
33788
32103
31248
32183
32098
32638
30164
31145
30793
28737
32352
30000
32406
30833
32312
30004
30286
30506
32198
29965
32300
29122
29574
28031
26580
28774
29354
30799
30200
29311
29973
30158
30755
30059
30410
28788
31361
28763
31356
28529
30618
29355
29109
28236
28767
28579
29464
30537
29453
32709
31888
30535
30020
30099
28719
29927
28260
28916
28704
29129
31275
28613
29940
28722
31976
29638
30748
31341
29462
30643
29108
29629
29214
30390
30917
28625
29475
29485
29236
30835
31766
31621
35449
31075
32175
28522
31689
29823
31091
27622
30346
28890
30116
30549
29842
30485
30618
30383
30794
27985
31855
30422
32321
30463
32354
27677
31953
24321
28079
27660
30996
28509
32498
28609
32513
29337
31504
28861
29629
29906
30727
29670
29072
28610
30301
27872
31525
27084
31122
27435
31700
27718
30112
30806
31228
28743
31185
26866
29532
26711
25667
27421
28952
29709
29144
29144
28531
30172
30258
31025
29072
30344
28392
31506
28269
30322
27620
29828
29095
30589
28685
28857
28402
27943
30032
28824
29805
28681
31337
28355
31091
27358
28812
27337
26598
27895
28455
29843
29461
28011
29497
29643
30365
29235
29896
28944
30747
28296
30880
27655
29463
28596
28164
28443
28424
28549
29066
30710
28468
32646
30276
31020
28796
30276
27754
30001
27200
28911
27476
29591
30283
29059
28708
28657
30759
29732
29827
32097
28580
31213
27971
30156
28484
30665
29746
29781
28410
30155
28003
31541
30857
32111
33515
31314
31564
28658
30509
29912
29936
28107
28885
28762
28766
30055
28793
30801
29149
30795
29750
28445
30616
30622
30974
30199
31332
27981
30777
25795
27512
28099
30364
28757
32269
29435
32702
30135
32002
29831
29525
30845
30444
30577
29339
29957
31307
29200
32269
28987
32597
30000
33208
29970
31340
32916
32792
31121
33081
29823
31510
29322
27960
30136
30800
32487
31499
31871
32860
33826
34027
33053
33072
31693
34670
31799
33798
31691
33184
32910
33371
31924
31368
31255
31049
33448
32105
36481
35565
33871
32416
33003
30521
32202
31258
31495
32030
31141
33328
30679
30679
32532
31281
33113
31253
31920
31642
30488
32223
31341
32556
28895
30608
28767
28589
28263
29064
28872
30098
30531
29097
31799
30180
29790
29226
29383
27953
28791
27383
28403
27808
28723
30449
27921
28728
26876
30628
28733
30343
31031
28852
29703
28382
28458
28280
29215
29756
28965
28394
29402
28464
30384
30907
30576
33516
30161
31068
28051
30121
29328
29298
27375
28546
27809
28828
29358
28604
29929
28349
29837
29376
28166
31148
30355
31088
30179
30418
27607
30609
25375
28039
27820
29998
28455
31445
28859
31602
29377
31011
28829
28554
29892
29896
30179
28298
29893
30290
29009
32792
30285
34132
32291
36045
34514
36298
38854
40803
39419
42208
39630
41785
41118
40188
43219
44738
47335
45978
46130
47205
49271
49888
50554
51063
49581
51408
48241
48180
43565
40916
38032
35224
32280
29612
28283
26281
27463
23584
26748
24674
22509
21894
23593
23244
25682
25885
26892
28540
28138
31452
29448
31826
30261
33008
30860
31726
31263
30824
31968
31178
31718
30192
30845
31007
27233
30860
29929
30848
30848
31441
32330
31742
35588
30262
33070
28143
32035
29049
30810
27609
30029
29292
28903
31822
28683
30643
27266
32037
29137
31576
31324
30033
29645
29221
28848
29984
29698
31096
29313
29788
29522
29446
30351
32279
31017
35000
29879
32286
28301
31860
29529
30882
27957
30704
28957
30754
30199
30145
30722
30205
30907
30997
29155
32553
30943
32427
30711
31918
28412
31605
26603
30118
28811
31121
29335
32872
29823
33276
30340
32627
30370
29767
30963
31557
31667
29257
30078
30670
28657
31864
29682
32297
30153
32080
29819
30065
31881
32408
30735
32167
29428
29776
29332
26714
29839
29805
32333
30402
31216
30996
33051
31904
32811
31394
31236
32557
30982
32332
31253
31128
32647
31435
31778
30160
31604
30598
34373
30977
37509
34549
35154
32277
34420
30362
33583
31094
33057
31722
32693
33787
32490
33013
33180
34758
33823
33496
35038
32352
35043
32912
34453
32112
34390
33160
30831
33013
33609
32794
35483
34416
35567
38502
34675
35570
32194
34845
32868
33540
31344
32916
32797
33050
33697
32952
32952
33916
33725
34227
34053
32810
34020
33984
35182
33687
35903
31954
34710
28396
29973
31244
34062
32877
33960
35418
34485
37384
34291
34868
31850
33568
33131
33521
31860
32764
31860
32992
32672
32663
33075
31966
32936
33296
32027
34883
32705
33896
32196
33250
29796
33237
27995
30734
29437
31981
30124
33385
30267
33693
31185
32566
30272
29710
30901
30913
31294
28804
29612
29779
28235
31110
28525
31536
29859
31656
29237
29174
30046
30995
29266
31250
27584
28437
27067
25130
28126
28042
30388
28393
28925
29511
30771
30079
30091
29895
28167
30751
27976
29760
27926
29453
29585
28877
28767
28162
28168
28480
30653
28674
33731
32152
31322
29756
30382
28049
29634
28123
28737
28763
28826
31120
28413
30190
28733
31518
29413
30261
30559
29278
30451
29497
30450
28873
30232
30356
27324
29380
29933
29514
31163
31229
31763
34724
31211
32220
28247
31432
29593
30240
27664
29799
29222
29396
29859
28863
30088
30185
30638
30538
28794
31114
31029
31907
30610
32488
28443
31074
24521
26880
27641
30556
28531
28531
31807
29479
32004
29590
30537
29747
29460
31150
30137
30006
29535
29613
30251
29879
31243
28248
30377
27897
30808
28690
30588
31911
31268
31218
30631
30406
28559
31038
27045
29440
28485
30553
29490
31541
29806
32725
30619
32156
30262
29620
30532
30486
31175
28635
29694
29832
27945
31405
28988
31469
29815
31667
28877
29468
29831
31443
28992
31883
27981
29168
27589
26227
27927
28701
30313
29488
28861
29886
30452
30212
29965
30153
28171
31140
27842
30605
27886
30164
29865
29658
28169
29049
28067
29244
30091
29307
33102
32564
31007
30054
29783
28765
29302
28556
28304
29280
28562
31620
27614
29801
27906
32062
28263
30992
30023
29321
30158
29785
29457
29256
29391
30453
26229
29526
28313
29767
29975
31488
30597
35016
29565
32443
27120
31514
28352
30625
26591
29988
27927
29665
28763
29140
29170
29880
29297
30680
27223
30533
29228
31747
29640
31594
27440
30521
23805
26242
26476
30057
27161
31504
27607
31562
29079
29895
28951
28978
29704
29742
29399
28546
28861
29741
28792
30835
27773
30425
30425
28002
31490
29359
30736
33134
31068
30119
30364
28128
29320
28807
26780
30426
29058
31767
29543
30959
30822
32318
31707
31790
30568
30595
32248
32096
33559
30162
32549
31422
30903
32635
31983
33234
32475
32820
32075
30789
33282
32924
32359
32599
31221
30112
29999
26994
31163
29699
33259
30743
31551
30860
33278
31837
32208
31216
30735
32161
30115
31230
29668
30759
30978
29911
29747
28961
29073
29510
31183
28786
33525
31518
31072
28960
29701
27941
29409
27329
28629
28084
28348
30104
27814
29080
27703
30570
28620
29696
29701
28072
30110
28580
29319
28376
29603
29676
26759
29144
28681
29028
30347
30892
30923
34732
30019
31630
27772
31495
29117
30160
26821
29642
28281
27843
29790
29207
29703
30078
29957
30839
27626
30925
29246
32012
29841
31935
27671
31198
23734
26584
27690
30122
27825
31626
28748
31703
29663
30157
30417
28490
29621
29050
28781
27712
28683
29066
29183
30456
27742
30001
28065
31460
30038
31896
34891
33334
33580
35768
34299
36865
37024
35869
40621
41416
43230
42304
42304
43383
44993
46534
47623
47247
47480
46495
49237
48882
50276
49719
51068
50164
49940
47612
43818
41714
36505
37170
33640
36012
32952
29381
26404
25048
20898
20745
20454
16459
19839
21404
24973
25282
25974
27981
29386
29771
29965
30438
29593
32404
29382
31704
29281
31440
31093
30537
29812
29629
29315
29892
31585
30160
34535
33040
31947
30698
30808
28909
30707
29046
29671
29587
29570
32186
29409
30602
29566
32813
30346
31280
31714
29786
31535
30551
30807
29876
31042
31314
28381
30124
30519
